TITLE	JS187+JS190_5E-5_H2O_52-48_100EQDT+72H
DATA TYPE	
ORIGIN	JASCO
OWNER	
DATE	24/01/26
TIME	09:40:03
SPECTROMETER/DATA SYSTEM	
LOCALE	1033
RESOLUTION	
DELTAX	-0.5
XUNITS	NANOMETERS
YUNITS	CD [mdeg]
Y2UNITS	LD [dOD]
Y3UNITS	ABSORBANCE
Y4UNITS	HT [V]
FIRSTX	  700.0000
LASTX	  220.0000
NPOINTS	     961
FIRSTY	     1.20432
MAXY	    11.90398
MINY	   -20.02083
XYDATA
700.0000	1.20432	-0.000380352	-0.0102387	303.367
699.5000	1.0339	-0.000381972	-0.0107489	303.114
699.0000	1.03737	-0.00038714	-0.0113397	302.808
698.5000	1.22762	-0.000371634	-0.0115402	302.455
698.0000	1.41442	-0.000350583	-0.0120432	302.074
697.5000	1.24178	-0.000329819	-0.0130003	301.675
697.0000	1.21265	-0.000294638	-0.0142644	301.228
696.5000	1.03967	-0.000297739	-0.0147067	300.778
696.0000	0.995761	-0.000296413	-0.014512	300.27
695.5000	1.05043	-0.000301712	-0.0144699	299.749
695.0000	1.12823	-0.000320919	-0.0140811	299.262
694.5000	0.988125	-0.000330161	-0.0137818	298.788
694.0000	1.14462	-0.000334103	-0.0126681	298.314
693.5000	1.23525	-0.000327388	-0.0111807	297.88
693.0000	1.30357	-0.000314829	-0.0092549	297.486
692.5000	1.14666	-0.000317356	-0.0073243	297.116
692.0000	1.05056	-0.000307138	-0.0053284	296.792
691.5000	1.01567	-0.000316164	-0.00295402	296.514
691.0000	0.928955	-0.000321588	-0.000672195	296.245
690.5000	0.762709	-0.000321874	0.000926625	296.017
690.0000	0.811692	-0.000330151	0.00214637	295.801
689.5000	0.757922	-0.000334029	0.00335406	295.607
689.0000	0.503417	-0.000334573	0.00498444	295.436
688.5000	0.503263	-0.000348952	0.00625166	295.311
688.0000	0.436681	-0.000336316	0.00824134	295.28
687.5000	0.45353	-0.000334648	0.0107724	295.349
687.0000	0.228651	-0.000323894	0.0132588	295.491
686.5000	-0.0255294	-0.000337558	0.0153881	295.689
686.0000	-0.0386674	-0.000345013	0.0164098	295.916
685.5000	0.0132143	-0.000339223	0.0166708	296.174
685.0000	-0.322518	-0.00035943	0.0165328	296.43
684.5000	-0.303471	-0.000372286	0.0158898	296.682
684.0000	-0.0693694	-0.000367067	0.0146583	296.916
683.5000	-0.0106321	-0.000375968	0.0138671	297.154
683.0000	-0.0126223	-0.000361376	0.0128987	297.388
682.5000	-0.0283197	-0.000371739	0.0124589	297.627
682.0000	0.217685	-0.000368129	0.0117729	297.88
681.5000	0.302942	-0.000379081	0.0116799	298.142
681.0000	0.414025	-0.000382127	0.0118536	298.441
680.5000	0.837777	-0.000375888	0.0120577	298.72
680.0000	0.875674	-0.00038763	0.0112924	298.976
679.5000	0.957243	-0.000396354	0.010005	299.177
679.0000	0.938093	-0.000387325	0.00744566	299.303
678.5000	1.15772	-0.000370768	0.0058052	299.382
678.0000	1.27133	-0.000350547	0.00405288	299.411
677.5000	1.38986	-0.000333896	0.00304709	299.419
677.0000	1.31846	-0.000324622	0.00255971	299.404
676.5000	1.4508	-0.000324429	0.00262549	299.37
676.0000	1.21569	-0.00032175	0.00294863	299.358
675.5000	1.2278	-0.00031497	0.00311454	299.33
675.0000	1.27828	-0.000323666	0.00351483	299.311
674.5000	1.01864	-0.00032727	0.0042198	299.289
674.0000	0.862491	-0.000321244	0.00501803	299.279
673.5000	0.754909	-0.000314593	0.00596836	299.284
673.0000	0.486413	-0.000292894	0.00604267	299.3
672.5000	0.438925	-0.000288571	0.00611509	299.326
672.0000	0.337198	-0.000268064	0.00648574	299.357
671.5000	0.37658	-0.00026769	0.00716567	299.375
671.0000	0.108438	-0.000279505	0.00805595	299.415
670.5000	0.306411	-0.000265995	0.00918306	299.461
670.0000	0.194527	-0.00026326	0.0101118	299.511
669.5000	0.336104	-0.000267184	0.0105286	299.565
669.0000	0.356906	-0.000267683	0.0109231	299.616
668.5000	0.457027	-0.000283199	0.0113848	299.676
668.0000	0.184908	-0.000298008	0.0117583	299.761
667.5000	0.301971	-0.000291374	0.0119386	299.844
667.0000	0.121814	-0.000269328	0.011984	299.942
666.5000	0.216588	-0.000266774	0.0120681	300.042
666.0000	0.232693	-0.000256926	0.0113922	300.146
665.5000	0.195826	-0.000281367	0.0112792	300.263
665.0000	0.338766	-0.000295789	0.0118605	300.37
664.5000	0.466297	-0.000290913	0.0126586	300.468
664.0000	0.38338	-0.000307371	0.012897	300.579
663.5000	0.20283	-0.000303164	0.0121902	300.693
663.0000	0.533603	-0.000315802	0.0119224	300.768
662.5000	0.456065	-0.000301726	0.0116556	300.849
662.0000	0.538694	-0.000305845	0.011385	300.924
661.5000	0.277554	-0.00032013	0.0114943	300.973
661.0000	0.32712	-0.000319555	0.0112396	301.013
660.5000	0.455941	-0.000308133	0.010796	301.044
660.0000	0.732422	-0.000304557	0.0104218	301.047
659.5000	0.627511	-0.000293579	0.00967542	301.046
659.0000	0.784543	-0.000305037	0.00911388	301.027
658.5000	0.755842	-0.000300787	0.00865068	300.983
658.0000	0.662477	-0.000311111	0.00868737	300.935
657.5000	0.997532	-0.000302583	0.00811563	300.864
657.0000	0.823666	-0.0002952	0.0085059	300.782
656.5000	0.729733	-0.000295889	0.00782421	300.681
656.0000	0.896023	-0.000299709	0.00695261	300.538
655.5000	1.25202	-0.000303229	0.00752501	300.382
655.0000	1.3418	-0.000294214	0.00736499	300.207
654.5000	1.26124	-0.000290241	0.00657404	300.022
654.0000	1.18521	-0.000299003	0.00637014	299.815
653.5000	1.06656	-0.000303265	0.00689425	299.619
653.0000	1.14575	-0.000298595	0.00780416	299.439
652.5000	1.15887	-0.000288421	0.0086186	299.278
652.0000	1.27685	-0.000295975	0.00971859	299.152
651.5000	1.10016	-0.000311428	0.0111763	299.042
651.0000	1.0769	-0.00032501	0.0130504	298.956
650.5000	1.00889	-0.00031807	0.0143287	298.909
650.0000	1.16563	-0.000322512	0.0161483	298.899
649.5000	1.20748	-0.000324481	0.0173476	298.905
649.0000	1.24364	-0.000325321	0.0187157	298.926
648.5000	1.32739	-0.000354151	0.0193133	298.984
648.0000	1.35528	-0.000353371	0.0201768	299.058
647.5000	1.24709	-0.000334886	0.0209845	299.152
647.0000	1.02278	-0.000336341	0.0214471	299.286
646.5000	1.01686	-0.00034756	0.0219365	299.444
646.0000	1.20319	-0.000363793	0.0233106	299.603
645.5000	1.30303	-0.000355334	0.0239126	299.762
645.0000	1.42002	-0.000361057	0.0233606	299.906
644.5000	1.47838	-0.000374142	0.0231739	300.039
644.0000	1.35531	-0.000375057	0.023199	300.154
643.5000	1.18831	-0.000382666	0.0227458	300.236
643.0000	1.49002	-0.000376504	0.0224283	300.302
642.5000	1.64314	-0.00037162	0.0220454	300.334
642.0000	1.71774	-0.000360311	0.0218344	300.345
641.5000	1.80047	-0.000356439	0.02148	300.335
641.0000	1.54503	-0.000361218	0.0214056	300.305
640.5000	1.48731	-0.000338689	0.021648	300.254
640.0000	1.52173	-0.000333936	0.0221602	300.195
639.5000	1.53965	-0.000327266	0.0230582	300.131
639.0000	1.51978	-0.000333178	0.0236898	300.057
638.5000	1.44331	-0.00035642	0.0247367	299.969
638.0000	1.50322	-0.000337818	0.0252505	299.884
637.5000	1.37412	-0.000327214	0.025516	299.794
637.0000	1.31479	-0.000320141	0.0266922	299.705
636.5000	1.34012	-0.000326462	0.0276218	299.622
636.0000	1.48754	-0.000345108	0.0278679	299.541
635.5000	1.56449	-0.000338359	0.028206	299.46
635.0000	1.3983	-0.00032735	0.029071	299.393
634.5000	1.25607	-0.000343183	0.0298308	299.33
634.0000	0.919169	-0.00035056	0.0305606	299.276
633.5000	0.913864	-0.000364642	0.0309002	299.224
633.0000	0.917894	-0.000371323	0.0318411	299.181
632.5000	0.900775	-0.00036833	0.0321833	299.144
632.0000	1.08458	-0.000376471	0.0325605	299.109
631.5000	1.19669	-0.000364046	0.0331619	299.069
631.0000	1.40067	-0.000360692	0.0337863	299.035
630.5000	1.40712	-0.00035479	0.0343788	299
630.0000	1.42206	-0.000344274	0.0350474	298.965
629.5000	1.4909	-0.000349483	0.0358974	298.933
629.0000	1.48593	-0.000322313	0.0364578	298.897
628.5000	1.46978	-0.000335604	0.0368589	298.864
628.0000	1.35354	-0.000323288	0.0373532	298.814
627.5000	1.17252	-0.000308211	0.0382677	298.772
627.0000	1.07524	-0.000315345	0.0386735	298.73
626.5000	1.05861	-0.000323127	0.0386907	298.681
626.0000	1.04033	-0.000327126	0.0389303	298.644
625.5000	1.13015	-0.000318298	0.0397655	298.605
625.0000	1.23448	-0.000314983	0.0406775	298.567
624.5000	1.29534	-0.000340774	0.041583	298.531
624.0000	1.35183	-0.000325543	0.0424536	298.512
623.5000	1.01095	-0.000337022	0.0435524	298.52
623.0000	0.86508	-0.000346821	0.0444898	298.527
622.5000	0.848836	-0.00034926	0.0455652	298.545
622.0000	0.851111	-0.00035223	0.0463593	298.573
621.5000	0.845463	-0.000348338	0.0472639	298.618
621.0000	0.93765	-0.000356445	0.0482067	298.671
620.5000	0.952622	-0.000364991	0.0488941	298.735
620.0000	1.17904	-0.000369555	0.0494016	298.806
619.5000	1.30719	-0.000363238	0.050423	298.915
619.0000	1.52046	-0.000371773	0.0518238	299.035
618.5000	1.62635	-0.000373937	0.0537493	299.179
618.0000	1.64363	-0.000359342	0.0556503	299.323
617.5000	2.04834	-0.000359265	0.0566052	299.48
617.0000	1.91386	-0.000353362	0.0572084	299.636
616.5000	2.00168	-0.000359051	0.0578335	299.789
616.0000	2.16404	-0.0003506	0.0588719	299.938
615.5000	2.17712	-0.000368312	0.0593621	300.073
615.0000	2.42194	-0.000370612	0.0599425	300.226
614.5000	2.35148	-0.00035869	0.0603938	300.383
614.0000	2.37343	-0.000370541	0.0607506	300.527
613.5000	2.3354	-0.000379083	0.0613967	300.677
613.0000	2.25625	-0.00036773	0.0619399	300.834
612.5000	2.2109	-0.000374416	0.0627025	301.002
612.0000	2.37446	-0.000373092	0.063525	301.164
611.5000	2.20638	-0.000370461	0.0644836	301.309
611.0000	2.11784	-0.000390341	0.0648973	301.452
610.5000	2.26636	-0.000397368	0.0652734	301.598
610.0000	2.20488	-0.000415372	0.065343	301.722
609.5000	2.14401	-0.000424647	0.066148	301.855
609.0000	1.8476	-0.000439338	0.0667991	301.97
608.5000	1.84093	-0.000458604	0.0679801	302.1
608.0000	1.68525	-0.000446886	0.0686637	302.213
607.5000	1.79208	-0.000466022	0.0689422	302.327
607.0000	1.9855	-0.000471489	0.0696458	302.446
606.5000	1.98644	-0.000467119	0.070418	302.559
606.0000	2.06097	-0.000462576	0.0718217	302.665
605.5000	1.82541	-0.000472127	0.0729077	302.77
605.0000	1.81487	-0.000485158	0.0741423	302.856
604.5000	1.86842	-0.000477463	0.0750867	302.935
604.0000	1.88575	-0.000467144	0.0763642	303.019
603.5000	1.51503	-0.000480259	0.0777705	303.099
603.0000	1.8954	-0.000484735	0.0787918	303.181
602.5000	1.82562	-0.000488766	0.0803574	303.27
602.0000	2.01474	-0.000496719	0.0820252	303.351
601.5000	1.7888	-0.000503147	0.0835429	303.43
601.0000	1.86407	-0.00049707	0.0851079	303.514
600.5000	2.15147	-0.000478122	0.0871131	303.586
600.0000	2.23281	-0.000464112	0.0887372	303.647
599.5000	2.19147	-0.000450087	0.0913163	303.713
599.0000	1.94286	-0.000443477	0.0934608	303.772
598.5000	1.8005	-0.000451948	0.0960677	303.817
598.0000	1.75059	-0.000464173	0.0981056	303.848
597.5000	1.95572	-0.000460769	0.100113	303.894
597.0000	2.22581	-0.000484257	0.102492	303.946
596.5000	2.09692	-0.000481621	0.104923	303.979
596.0000	2.08319	-0.000477918	0.107338	304.004
595.5000	2.14233	-0.000481263	0.109624	304.033
595.0000	1.87193	-0.00049208	0.112308	304.061
594.5000	1.88977	-0.000483407	0.114858	304.077
594.0000	1.88716	-0.000454588	0.117025	304.108
593.5000	1.99633	-0.000443191	0.119816	304.143
593.0000	2.03901	-0.000457368	0.122952	304.18
592.5000	2.20279	-0.000449725	0.125606	304.237
592.0000	2.1723	-0.000449747	0.128265	304.316
591.5000	2.07672	-0.000471866	0.130484	304.382
591.0000	2.29247	-0.000466991	0.133281	304.459
590.5000	2.38345	-0.000462578	0.136003	304.569
590.0000	2.57494	-0.00045141	0.138911	304.688
589.5000	2.49749	-0.000447529	0.142142	304.823
589.0000	2.19183	-0.000424614	0.145403	304.966
588.5000	2.1994	-0.000435878	0.148703	305.137
588.0000	2.19878	-0.000449016	0.152259	305.318
587.5000	2.13988	-0.000458942	0.156023	305.535
587.0000	2.36135	-0.00044854	0.159811	305.791
586.5000	2.4876	-0.000455174	0.163498	306.046
586.0000	2.36367	-0.000442717	0.167977	306.327
585.5000	2.45592	-0.000449193	0.17191	306.608
585.0000	2.52807	-0.000435315	0.175903	306.91
584.5000	2.53773	-0.00041477	0.179912	307.216
584.0000	2.27975	-0.000400492	0.184681	307.571
583.5000	2.13864	-0.000386546	0.189525	307.93
583.0000	1.94879	-0.000376944	0.195089	308.338
582.5000	1.94753	-0.00035278	0.200425	308.764
582.0000	1.80429	-0.000351071	0.205892	309.199
581.5000	1.70999	-0.000318003	0.2117	309.672
581.0000	1.68167	-0.000309419	0.217986	310.167
580.5000	1.94472	-0.000285478	0.22436	310.677
580.0000	1.83627	-0.000266643	0.2308	311.213
579.5000	1.83648	-0.000237825	0.237185	311.759
579.0000	2.10746	-0.000189069	0.243734	312.31
578.5000	2.05632	-0.000143933	0.250941	312.885
578.0000	2.07468	-0.000110347	0.258237	313.5
577.5000	1.99128	-7.72612E-005	0.265477	314.168
577.0000	1.8944	-4.45236E-005	0.273493	314.826
576.5000	2.21852	-9.90073E-006	0.282242	315.551
576.0000	2.15816	3.33362E-006	0.290809	316.266
575.5000	2.31667	3.84976E-005	0.299964	317.025
575.0000	2.52837	8.67601E-005	0.308193	317.751
574.5000	2.76886	0.000126045	0.317524	318.555
574.0000	3.11037	0.000174721	0.327024	319.35
573.5000	3.19934	0.000217005	0.336654	320.17
573.0000	3.23869	0.000226485	0.346482	321.058
572.5000	3.56985	0.000274151	0.355792	321.905
572.0000	3.55896	0.000320596	0.366359	322.885
571.5000	3.92196	0.000366653	0.376892	323.841
571.0000	4.02769	0.00040613	0.388695	324.867
570.5000	4.01769	0.000455159	0.400317	325.932
570.0000	4.17699	0.000497659	0.411523	326.97
569.5000	4.06648	0.000536476	0.423815	328.056
569.0000	4.17646	0.000578448	0.43636	329.166
568.5000	4.10235	0.000623451	0.44774	330.228
568.0000	4.23431	0.000663423	0.459392	331.349
567.5000	4.30425	0.000688249	0.471293	332.489
567.0000	4.16605	0.000685997	0.483109	333.586
566.5000	4.39699	0.000685142	0.494807	334.655
566.0000	4.20695	0.000726634	0.506267	335.701
565.5000	4.40606	0.000757481	0.517177	336.729
565.0000	4.6521	0.000782262	0.528212	337.738
564.5000	4.74328	0.000786161	0.539182	338.735
564.0000	4.95789	0.000778584	0.549528	339.641
563.5000	4.91507	0.000764665	0.559174	340.512
563.0000	4.93995	0.000763863	0.568791	341.411
562.5000	4.90969	0.000762355	0.577611	342.207
562.0000	5.1459	0.000733239	0.586155	342.971
561.5000	4.93403	0.000689119	0.595457	343.764
561.0000	4.85121	0.000649584	0.603864	344.506
560.5000	5.20625	0.000608993	0.611559	345.187
560.0000	5.30912	0.000574334	0.619105	345.825
559.5000	5.22774	0.000534803	0.626204	346.371
559.0000	5.27468	0.000512064	0.632165	346.824
558.5000	5.48832	0.00048136	0.637189	347.216
558.0000	5.64494	0.000443514	0.641511	347.545
557.5000	5.52597	0.000356001	0.645713	347.828
557.0000	5.40449	0.000314908	0.649563	348.06
556.5000	5.29299	0.000256773	0.652378	348.232
556.0000	5.16525	0.000216137	0.654106	348.344
555.5000	5.16125	0.000164831	0.655833	348.419
555.0000	4.92475	8.49607E-005	0.657027	348.418
554.5000	4.76656	3.29625E-005	0.658072	348.36
554.0000	5.02393	-6.58472E-006	0.658021	348.246
553.5000	5.1021	-3.39169E-005	0.657552	348.086
553.0000	5.03428	-6.08551E-005	0.656705	347.896
552.5000	4.77817	-0.000110619	0.656199	347.69
552.0000	4.84482	-0.000191334	0.655041	347.41
551.5000	4.5251	-0.000225847	0.653625	347.115
551.0000	4.37606	-0.000293413	0.65162	346.801
550.5000	4.39327	-0.000332357	0.649472	346.456
550.0000	4.42761	-0.000341851	0.647378	346.088
549.5000	4.0322	-0.000367147	0.645378	345.71
549.0000	4.34409	-0.000370593	0.642712	345.326
548.5000	4.55325	-0.000399306	0.639914	344.939
548.0000	4.26881	-0.00041606	0.637999	344.521
547.5000	4.19069	-0.00039657	0.636034	344.122
547.0000	4.31746	-0.000386084	0.634008	343.696
546.5000	4.38039	-0.00041307	0.631993	343.337
546.0000	4.30568	-0.00042969	0.6294	342.99
545.5000	4.44419	-0.000427226	0.62797	342.653
545.0000	4.49627	-0.000434716	0.626575	342.368
544.5000	4.87032	-0.000417884	0.625072	342.06
544.0000	4.70703	-0.000414822	0.623567	341.799
543.5000	4.67832	-0.00040792	0.622472	341.568
543.0000	4.99238	-0.000383529	0.621819	341.367
542.5000	4.88993	-0.000365253	0.621624	341.184
542.0000	4.86006	-0.000352184	0.621296	341.022
541.5000	5.15051	-0.000365463	0.621223	340.906
541.0000	5.01224	-0.000339776	0.621072	340.806
540.5000	4.85041	-0.000317844	0.621888	340.732
540.0000	5.29597	-0.000292889	0.623033	340.676
539.5000	5.33543	-0.000281577	0.62426	340.682
539.0000	5.60084	-0.000269477	0.625565	340.733
538.5000	5.75772	-0.0002528	0.627262	340.804
538.0000	5.91922	-0.000216363	0.629516	340.889
537.5000	5.71957	-0.000196866	0.631963	341.006
537.0000	5.79257	-0.000183236	0.634537	341.159
536.5000	5.59973	-0.000163278	0.63748	341.335
536.0000	5.702	-0.000156157	0.640946	341.548
535.5000	5.70161	-0.000138186	0.644497	341.778
535.0000	6.12694	-9.82338E-005	0.648597	342.048
534.5000	5.94882	-0.000111808	0.652479	342.308
534.0000	6.29324	-9.31304E-005	0.656837	342.621
533.5000	6.52359	-8.23882E-005	0.661171	342.954
533.0000	6.48713	-9.73456E-005	0.665487	343.297
532.5000	6.54532	-0.000119572	0.669976	343.665
532.0000	6.2499	-0.00013909	0.675032	344.079
531.5000	6.17228	-0.000162474	0.680441	344.515
531.0000	6.31146	-0.000164955	0.68657	344.964
530.5000	6.19623	-0.000194117	0.692187	345.401
530.0000	6.30247	-0.000205365	0.698076	345.885
529.5000	6.29401	-0.000229773	0.703906	346.364
529.0000	6.53292	-0.000245607	0.709701	346.81
528.5000	6.46674	-0.000266885	0.715333	347.263
528.0000	6.65334	-0.000313563	0.720799	347.702
527.5000	6.8045	-0.000334841	0.726526	348.141
527.0000	6.76876	-0.000379737	0.732885	348.633
526.5000	6.73006	-0.000414239	0.738546	349.09
526.0000	7.23619	-0.000440661	0.744706	349.567
525.5000	6.87782	-0.000502075	0.750682	350.023
525.0000	7.1334	-0.000525799	0.756606	350.478
524.5000	7.05641	-0.000539779	0.762111	350.878
524.0000	7.07045	-0.000582683	0.767133	351.232
523.5000	7.10357	-0.000612495	0.771991	351.604
523.0000	6.91869	-0.000660589	0.776592	351.948
522.5000	6.63801	-0.000718491	0.780718	352.271
522.0000	6.47426	-0.000761086	0.785265	352.608
521.5000	6.0509	-0.000799993	0.789724	352.913
521.0000	5.69672	-0.000857054	0.793819	353.2
520.5000	5.56771	-0.000921108	0.797798	353.475
520.0000	5.55475	-0.000980298	0.801246	353.706
519.5000	5.48095	-0.00100691	0.804996	353.94
519.0000	5.36172	-0.00106408	0.808343	354.159
518.5000	4.95657	-0.00111615	0.811233	354.363
518.0000	4.53612	-0.00118402	0.814563	354.579
517.5000	3.89782	-0.00124813	0.817938	354.79
517.0000	3.31781	-0.0013208	0.821355	354.981
516.5000	3.14094	-0.00136606	0.824787	355.169
516.0000	3.13414	-0.00142373	0.828034	355.362
515.5000	3.01032	-0.00147732	0.830906	355.564
515.0000	2.95199	-0.00154074	0.833596	355.735
514.5000	2.87142	-0.00159189	0.836294	355.922
514.0000	2.8444	-0.00165647	0.838747	356.073
513.5000	2.74682	-0.00168867	0.8414	356.236
513.0000	2.88137	-0.00173685	0.843743	356.405
512.5000	2.93242	-0.00176341	0.846608	356.602
512.0000	2.80912	-0.00179858	0.849292	356.774
511.5000	3.01624	-0.00186504	0.85165	356.951
511.0000	2.90953	-0.00189617	0.854029	357.112
510.5000	2.97752	-0.00192654	0.856495	357.255
510.0000	3.10849	-0.0019369	0.858888	357.393
509.5000	3.32596	-0.00196702	0.861003	357.518
509.0000	3.82192	-0.0019884	0.862987	357.642
508.5000	4.01125	-0.00203665	0.864811	357.738
508.0000	4.14328	-0.00208004	0.866844	357.822
507.5000	3.99019	-0.00210643	0.868619	357.869
507.0000	4.01707	-0.00213262	0.870465	357.918
506.5000	3.82298	-0.00215228	0.872315	357.971
506.0000	3.69553	-0.00216625	0.873772	358.027
505.5000	3.90588	-0.00219753	0.875058	358.062
505.0000	3.86609	-0.00223577	0.876377	358.092
504.5000	3.8084	-0.00227415	0.877611	358.098
504.0000	3.84581	-0.0023379	0.878456	358.069
503.5000	3.87506	-0.00235873	0.879097	358.023
503.0000	3.89493	-0.0023418	0.879529	357.937
502.5000	3.86507	-0.00237276	0.879606	357.833
502.0000	3.6753	-0.00242841	0.879584	357.726
501.5000	3.29332	-0.00246426	0.879371	357.577
501.0000	3.09486	-0.00248461	0.87889	357.387
500.5000	2.87263	-0.00249247	0.878377	357.167
500.0000	2.75017	-0.00252043	0.877577	356.899
499.5000	2.31349	-0.00256114	0.876098	356.582
499.0000	2.60881	-0.00260419	0.874268	356.155
498.5000	2.59743	-0.00264033	0.872202	355.62
498.0000	2.64739	-0.00266781	0.869784	354.957
497.5000	2.44262	-0.00270796	0.867395	354.13
497.0000	2.41917	-0.00275048	0.86538	353.246
496.5000	2.48918	-0.00277345	0.863307	352.285
496.0000	2.62322	-0.00278883	0.86208	351.471
495.5000	1.90596	-0.0028147	0.861233	350.833
495.0000	1.51931	-0.00286677	0.85964	350.337
494.5000	1.2767	-0.00293295	0.857559	349.897
494.0000	1.16034	-0.00294474	0.855327	349.489
493.5000	0.991078	-0.00297791	0.852749	349.042
493.0000	0.91332	-0.0030261	0.850395	348.633
492.5000	1.1817	-0.00307385	0.847981	348.22
492.0000	0.952444	-0.00312033	0.845116	347.774
491.5000	1.12839	-0.00315567	0.842171	347.366
491.0000	1.14357	-0.0031821	0.839581	346.995
490.5000	1.01361	-0.00323206	0.836948	346.659
490.0000	0.942373	-0.0032886	0.83429	346.372
489.5000	1.06569	-0.00333317	0.831442	346.128
489.0000	0.592408	-0.00335748	0.828461	345.898
488.5000	0.415992	-0.00340158	0.825194	345.654
488.0000	0.269308	-0.00342667	0.821164	345.258
487.5000	0.190283	-0.00347023	0.816416	344.624
487.0000	0.19873	-0.00350333	0.812459	343.875
486.5000	0.345109	-0.00352773	0.808317	342.986
486.0000	0.477838	-0.00355285	0.804281	342.059
485.5000	0.508969	-0.00359021	0.801329	341.132
485.0000	0.298242	-0.00364106	0.79894	340.267
484.5000	0.347937	-0.00365239	0.796352	339.562
484.0000	-0.0266917	-0.00369882	0.793181	338.933
483.5000	-0.00748434	-0.00373001	0.790309	338.423
483.0000	-0.148636	-0.00374889	0.786705	337.919
482.5000	-0.080237	-0.0037665	0.782858	337.478
482.0000	-0.214091	-0.00378154	0.778815	337.075
481.5000	-0.241731	-0.00380121	0.774863	336.679
481.0000	-0.00244881	-0.00383113	0.77125	336.326
480.5000	-0.163522	-0.00384005	0.767405	335.995
480.0000	-0.166768	-0.00383874	0.763091	335.657
479.5000	0.0169078	-0.00385488	0.758794	335.331
479.0000	0.131428	-0.00387797	0.75325	334.907
478.5000	0.263798	-0.00388241	0.747305	334.262
478.0000	0.291668	-0.00388493	0.742087	333.344
477.5000	0.0952885	-0.00388075	0.739241	332.505
477.0000	0.094893	-0.00387875	0.736532	331.861
476.5000	0.0812747	-0.00385863	0.731391	331.236
476.0000	0.141829	-0.00386694	0.725017	330.428
475.5000	0.414323	-0.00386941	0.718271	329.382
475.0000	0.25634	-0.00387295	0.711562	328.135
474.5000	0.486209	-0.0038612	0.705727	326.801
474.0000	0.218796	-0.00385048	0.700413	325.348
473.5000	0.232915	-0.00384167	0.6946	323.676
473.0000	-0.0453579	-0.00382868	0.688536	321.826
472.5000	0.0214809	-0.00379069	0.683261	319.84
472.0000	0.17903	-0.00378136	0.679973	318.131
471.5000	0.210422	-0.00375765	0.677125	316.73
471.0000	-0.0198777	-0.00374814	0.674717	315.877
470.5000	0.0147434	-0.00373033	0.67203	315.29
470.0000	-0.323611	-0.00370934	0.668983	315.037
469.5000	-0.268814	-0.00370549	0.664171	314.903
469.0000	-0.144819	-0.00369879	0.655845	314.464
468.5000	-0.0746298	-0.00367463	0.647237	313.605
468.0000	-0.235621	-0.00364649	0.640456	312.602
467.5000	-0.418467	-0.00361863	0.635277	311.725
467.0000	-0.192919	-0.0035756	0.631335	311.065
466.5000	-0.411869	-0.00355228	0.627728	310.599
466.0000	-0.494398	-0.00353504	0.623258	310.309
465.5000	-0.432306	-0.00351319	0.618268	310.213
465.0000	-0.606581	-0.00349335	0.612985	310.389
464.5000	-0.687941	-0.00345171	0.606541	310.747
464.0000	-0.893852	-0.00343778	0.598573	311.034
463.5000	-0.86255	-0.00340971	0.589337	310.998
463.0000	-0.714634	-0.00336921	0.58029	310.622
462.5000	-0.788688	-0.00333936	0.572536	310.059
462.0000	-0.658273	-0.00330812	0.56598	309.448
461.5000	-0.586536	-0.00326628	0.559857	308.901
461.0000	-0.38726	-0.00321401	0.553937	308.484
460.5000	-0.539336	-0.00316259	0.547621	308.18
460.0000	-0.270058	-0.00312223	0.5415	307.978
459.5000	-0.269632	-0.00310259	0.535225	307.851
459.0000	-0.261149	-0.00305607	0.527976	307.677
458.5000	-0.261865	-0.00303396	0.52033	307.423
458.0000	-0.245708	-0.00298265	0.512436	307.041
457.5000	-0.19086	-0.00293233	0.504361	306.439
457.0000	-0.191975	-0.00288267	0.4965	305.631
456.5000	-0.0494079	-0.00282903	0.490001	304.831
456.0000	0.439785	-0.00278458	0.483339	304.129
455.5000	0.537934	-0.00272951	0.475134	303.306
455.0000	0.311607	-0.00267962	0.467282	302.337
454.5000	0.31564	-0.00263843	0.460955	301.382
454.0000	0.336062	-0.00258827	0.455279	300.659
453.5000	0.484807	-0.00253726	0.448651	300.144
453.0000	0.417737	-0.0024811	0.441713	299.67
452.5000	0.335151	-0.00244243	0.434882	299.163
452.0000	0.256814	-0.002404	0.428286	298.618
451.5000	0.254862	-0.00234385	0.421374	298.047
451.0000	0.227393	-0.00225938	0.414719	297.492
450.5000	0.412175	-0.00219486	0.407809	296.897
450.0000	0.167081	-0.00214829	0.401683	296.328
449.5000	0.321604	-0.00210757	0.396116	295.845
449.0000	0.517987	-0.00207046	0.391202	295.543
448.5000	0.351152	-0.00202177	0.385166	295.284
448.0000	0.298384	-0.00197415	0.37865	294.92
447.5000	0.0210473	-0.00192946	0.373018	294.509
447.0000	0.00467011	-0.00189003	0.368837	294.295
446.5000	-0.0420188	-0.00184461	0.364525	294.287
446.0000	0.104507	-0.00179012	0.357846	294.189
445.5000	0.0784567	-0.00173871	0.350854	293.794
445.0000	0.0960028	-0.00170054	0.344911	293.227
444.5000	0.170486	-0.00165224	0.339112	292.598
444.0000	0.685814	-0.00161183	0.333439	291.955
443.5000	0.713164	-0.00155812	0.327779	291.245
443.0000	0.727933	-0.00152439	0.323055	290.61
442.5000	0.631178	-0.00147895	0.31849	289.998
442.0000	0.720164	-0.00146281	0.314377	289.5
441.5000	0.894687	-0.00143116	0.309606	288.972
441.0000	0.767669	-0.00138674	0.305179	288.494
440.5000	0.661664	-0.00135645	0.300699	288.014
440.0000	0.731682	-0.00131539	0.296125	287.53
439.5000	0.82804	-0.00127396	0.291284	287.028
439.0000	0.785216	-0.00122654	0.286207	286.512
438.5000	0.934411	-0.00117838	0.280863	285.992
438.0000	0.994559	-0.00112727	0.275477	285.489
437.5000	0.942809	-0.00110335	0.270467	285.011
437.0000	1.05062	-0.00105776	0.265177	284.526
436.5000	1.00781	-0.00102984	0.260977	284.107
436.0000	0.802691	-0.000993667	0.257163	283.74
435.5000	0.620798	-0.000953396	0.253107	283.415
435.0000	0.613446	-0.000906225	0.248631	283.09
434.5000	0.557701	-0.00088569	0.244175	282.768
434.0000	0.555094	-0.000866475	0.239747	282.416
433.5000	0.561926	-0.000816323	0.235376	282.04
433.0000	0.535671	-0.000783534	0.231439	281.653
432.5000	0.427148	-0.000750604	0.227715	281.28
432.0000	0.603007	-0.000713695	0.22354	280.872
431.5000	0.704039	-0.000687611	0.21935	280.452
431.0000	0.868491	-0.000665339	0.215507	280.05
430.5000	0.869412	-0.0006158	0.211775	279.647
430.0000	0.598257	-0.000599644	0.208444	279.267
429.5000	0.569156	-0.000574675	0.204953	278.878
429.0000	0.519317	-0.00053904	0.201466	278.483
428.5000	0.493633	-0.00050827	0.197895	278.089
428.0000	0.512366	-0.00047245	0.193873	277.681
427.5000	0.458877	-0.000450803	0.190608	277.32
427.0000	0.44622	-0.000433196	0.18736	276.95
426.5000	0.471339	-0.000415992	0.184194	276.579
426.0000	0.435828	-0.000380822	0.180996	276.186
425.5000	0.505829	-0.000354352	0.178137	275.784
425.0000	0.354858	-0.000350017	0.175166	275.364
424.5000	0.343843	-0.000321153	0.171878	274.884
424.0000	0.471639	-0.00029866	0.169006	274.424
423.5000	0.390671	-0.000286044	0.166809	274.027
423.0000	0.203053	-0.000260429	0.164474	273.682
422.5000	0.0839352	-0.000239438	0.162004	273.383
422.0000	0.0451118	-0.000235784	0.159305	273.093
421.5000	0.172056	-0.000217476	0.156696	272.819
421.0000	0.255113	-0.000190836	0.154364	272.566
420.5000	0.268488	-0.000175698	0.1519	272.305
420.0000	0.296496	-0.000150814	0.149537	272.038
419.5000	0.243931	-0.000131207	0.147321	271.766
419.0000	0.275071	-0.000117271	0.145103	271.504
418.5000	0.262728	-0.00010772	0.142982	271.286
418.0000	0.139409	-9.3828E-005	0.14105	271.063
417.5000	0.151441	-6.48507E-005	0.138972	270.846
417.0000	0.0110235	-3.81919E-005	0.137186	270.641
416.5000	0.0930356	-3.28932E-005	0.135707	270.498
416.0000	0.150486	-1.7012E-005	0.134187	270.414
415.5000	0.120502	1.4065E-005	0.132274	270.311
415.0000	0.174102	3.88045E-005	0.130262	270.162
414.5000	0.178491	4.37931E-005	0.128709	269.981
414.0000	0.208105	6.49314E-005	0.127554	269.793
413.5000	0.262542	8.93489E-005	0.126519	269.598
413.0000	0.128528	9.1473E-005	0.12547	269.416
412.5000	0.109416	0.000101295	0.124268	269.243
412.0000	0.188416	0.000115215	0.123439	269.113
411.5000	0.338346	0.000128985	0.122156	268.965
411.0000	0.435642	0.000146567	0.121162	268.847
410.5000	0.45328	0.000164148	0.120424	268.744
410.0000	0.506113	0.000178729	0.119627	268.636
409.5000	0.413429	0.000187024	0.118958	268.551
409.0000	0.384734	0.000189158	0.118407	268.494
408.5000	0.623601	0.000204411	0.117575	268.44
408.0000	0.553855	0.000224911	0.116758	268.402
407.5000	0.546216	0.000237009	0.11578	268.342
407.0000	0.617534	0.000227509	0.114963	268.271
406.5000	0.568035	0.000233666	0.114269	268.196
406.0000	0.620567	0.000238679	0.113559	268.116
405.5000	0.678207	0.000249817	0.112743	268.032
405.0000	0.650797	0.000251166	0.111929	267.926
404.5000	0.761629	0.000261352	0.111351	267.82
404.0000	0.628217	0.000252769	0.111001	267.68
403.5000	0.544989	0.000266302	0.110596	267.512
403.0000	0.452575	0.000262782	0.110633	267.339
402.5000	0.585598	0.000270581	0.110144	267.136
402.0000	0.49314	0.000262221	0.110275	266.959
401.5000	0.599072	0.000266052	0.110543	266.763
401.0000	0.489281	0.000280746	0.110444	266.576
400.5000	0.368977	0.000287999	0.110468	266.41
400.0000	0.371879	0.000287442	0.110378	266.267
399.5000	0.477421	0.000280896	0.110925	266.143
399.0000	0.43083	0.000297709	0.111537	266.059
398.5000	0.290517	0.000292977	0.111672	265.966
398.0000	0.336295	0.00029014	0.11183	265.901
397.5000	0.307001	0.000287976	0.111959	265.858
397.0000	0.330721	0.000290097	0.11254	265.851
396.5000	0.357682	0.000298791	0.112794	265.863
396.0000	0.344857	0.000291871	0.113225	265.908
395.5000	0.390666	0.000287207	0.113201	265.97
395.0000	0.302993	0.000277987	0.113426	266.069
394.5000	0.465137	0.000269422	0.113855	266.2
394.0000	0.276556	0.000276489	0.114231	266.349
393.5000	0.193448	0.000279237	0.114314	266.515
393.0000	0.0876451	0.000261428	0.114343	266.701
392.5000	0.299669	0.000265501	0.114507	266.876
392.0000	0.310985	0.000252146	0.114989	267.043
391.5000	0.212438	0.00026398	0.115456	267.175
391.0000	0.216258	0.000262213	0.115785	267.296
390.5000	0.176614	0.000256331	0.115998	267.419
390.0000	0.151869	0.000268751	0.116323	267.54
389.5000	0.192326	0.000277041	0.117026	267.657
389.0000	0.177322	0.000274092	0.117667	267.747
388.5000	0.263546	0.000269179	0.117977	267.824
388.0000	0.351742	0.000281984	0.118428	267.919
387.5000	0.381155	0.000284674	0.119019	267.996
387.0000	0.288733	0.000293707	0.120073	268.07
386.5000	0.260881	0.000299976	0.120977	268.14
386.0000	0.229948	0.000295989	0.121976	268.203
385.5000	0.328623	0.000287409	0.123011	268.264
385.0000	0.415327	0.000287417	0.123892	268.306
384.5000	0.443231	0.000290252	0.124916	268.359
384.0000	0.322549	0.000291515	0.126082	268.412
383.5000	0.437145	0.000298881	0.126938	268.462
383.0000	0.563636	0.00028945	0.127802	268.524
382.5000	0.734584	0.000291051	0.128686	268.581
382.0000	0.748934	0.000293066	0.129931	268.632
381.5000	0.7126	0.000277354	0.131343	268.686
381.0000	0.763251	0.000285094	0.132507	268.747
380.5000	0.751312	0.000280053	0.13347	268.806
380.0000	0.512255	0.000269751	0.134785	268.876
379.5000	0.415047	0.000277056	0.136148	268.946
379.0000	0.400561	0.000272889	0.137061	269.009
378.5000	0.455428	0.00027064	0.137646	269.07
378.0000	0.492468	0.000265664	0.13835	269.137
377.5000	0.595804	0.000262516	0.139087	269.193
377.0000	0.664059	0.000281016	0.139652	269.234
376.5000	0.723605	0.00028298	0.140644	269.29
376.0000	0.682008	0.000286169	0.141394	269.318
375.5000	0.744551	0.000277624	0.142013	269.351
375.0000	0.811787	0.000279471	0.142683	269.38
374.5000	0.61707	0.000268297	0.143257	269.393
374.0000	0.601543	0.00025515	0.143953	269.414
373.5000	0.548972	0.000241294	0.144541	269.433
373.0000	0.581345	0.000227484	0.144848	269.448
372.5000	0.446713	0.000226289	0.145369	269.474
372.0000	0.624954	0.000224239	0.145847	269.49
371.5000	0.798913	0.000230534	0.146176	269.501
371.0000	0.964761	0.000216639	0.146725	269.517
370.5000	1.03005	0.000237159	0.147389	269.538
370.0000	0.992451	0.000233262	0.147992	269.567
369.5000	0.897081	0.000219223	0.14848	269.593
369.0000	0.953128	0.000211467	0.1491	269.632
368.5000	0.808592	0.000186378	0.149886	269.68
368.0000	0.77109	0.000169658	0.15031	269.72
367.5000	0.721758	0.000157051	0.151008	269.78
367.0000	0.879605	0.000143855	0.152051	269.854
366.5000	0.85808	0.000135908	0.152742	269.926
366.0000	1.00632	0.00014487	0.153461	270.011
365.5000	0.901974	0.000146151	0.154036	270.086
365.0000	1.11005	0.000157027	0.154387	270.152
364.5000	1.1694	0.000151851	0.155058	270.227
364.0000	1.13859	0.000142414	0.155565	270.304
363.5000	0.916012	0.000139598	0.156356	270.378
363.0000	0.8486	0.00011448	0.157363	270.476
362.5000	0.774809	8.9003E-005	0.158082	270.561
362.0000	0.937992	8.39091E-005	0.15879	270.647
361.5000	0.91908	9.03796E-005	0.159638	270.731
361.0000	0.875161	8.61429E-005	0.160457	270.814
360.5000	0.769925	7.76991E-005	0.161033	270.895
360.0000	0.98142	8.32115E-005	0.161907	270.993
359.5000	1.1047	7.87492E-005	0.162523	271.076
359.0000	1.09733	6.6607E-005	0.162788	271.149
358.5000	1.08343	6.51346E-005	0.163019	271.229
358.0000	0.987645	5.25958E-005	0.16312	271.294
357.5000	1.10965	5.85835E-005	0.16334	271.371
357.0000	1.0151	4.14904E-005	0.163978	271.462
356.5000	1.12114	3.63808E-005	0.164839	271.545
356.0000	1.04797	2.25193E-005	0.165201	271.616
355.5000	1.18701	1.0856E-005	0.165487	271.682
355.0000	1.42642	-9.24287E-006	0.165686	271.751
354.5000	1.44617	-2.68126E-006	0.165901	271.823
354.0000	1.50215	-8.2375E-006	0.166278	271.899
353.5000	1.40644	-2.05343E-005	0.166697	271.978
353.0000	1.42668	-2.18112E-005	0.167109	272.065
352.5000	1.44784	-3.55746E-005	0.167562	272.152
352.0000	1.60884	-5.7623E-005	0.168031	272.24
351.5000	1.62762	-6.02903E-005	0.168284	272.306
351.0000	1.65122	-7.76633E-005	0.168939	272.378
350.5000	1.67209	-9.62492E-005	0.169864	272.464
350.0000	1.57501	-0.000104936	0.170788	272.545
349.5000	1.63198	-0.000124666	0.171867	272.633
349.0000	1.58194	-0.00015143	0.172901	272.71
348.5000	1.60261	-0.000156619	0.173983	272.784
348.0000	1.51533	-0.000176229	0.174754	272.852
347.5000	1.39362	-0.000186692	0.17603	272.94
347.0000	1.31536	-0.000195379	0.177195	273.016
346.5000	1.14492	-0.000206898	0.178221	273.096
346.0000	1.25636	-0.000236741	0.179091	273.169
345.5000	1.20005	-0.000255568	0.180214	273.249
345.0000	1.13553	-0.000277942	0.18145	273.337
344.5000	1.26059	-0.00028025	0.18262	273.417
344.0000	1.38152	-0.000292817	0.183809	273.484
343.5000	1.32171	-0.000318174	0.184849	273.56
343.0000	1.30051	-0.000343992	0.185824	273.64
342.5000	1.30255	-0.00034594	0.186656	273.72
342.0000	1.33991	-0.000361256	0.18748	273.803
341.5000	1.40545	-0.000377777	0.188366	273.882
341.0000	1.59476	-0.000379654	0.189468	273.962
340.5000	1.73757	-0.000409709	0.190207	274.035
340.0000	1.68456	-0.000435576	0.191107	274.124
339.5000	1.83299	-0.000465086	0.19175	274.214
339.0000	1.86344	-0.000488035	0.192658	274.303
338.5000	1.90157	-0.000496929	0.193771	274.403
338.0000	1.93393	-0.000508003	0.194758	274.498
337.5000	1.85934	-0.000506723	0.195651	274.591
337.0000	2.01582	-0.000525917	0.196427	274.684
336.5000	1.94909	-0.000561905	0.197517	274.785
336.0000	2.23618	-0.000587029	0.198371	274.878
335.5000	2.30938	-0.000598217	0.199425	274.987
335.0000	2.35339	-0.000619735	0.200342	275.084
334.5000	2.38411	-0.000650707	0.201315	275.195
334.0000	2.57244	-0.000683626	0.202464	275.31
333.5000	2.73425	-0.000710519	0.204102	275.438
333.0000	2.67076	-0.000735696	0.205307	275.558
332.5000	2.52277	-0.000770519	0.206175	275.675
332.0000	2.65117	-0.000784632	0.207109	275.79
331.5000	2.74156	-0.000802891	0.208277	275.907
331.0000	2.80751	-0.000811216	0.209526	276.028
330.5000	2.83584	-0.000837265	0.210553	276.149
330.0000	2.73151	-0.000879909	0.211615	276.265
329.5000	2.74298	-0.000911243	0.212873	276.398
329.0000	2.91482	-0.000966428	0.21402	276.533
328.5000	2.85159	-0.00100708	0.215225	276.66
328.0000	2.95504	-0.0010336	0.216218	276.778
327.5000	2.76884	-0.00107577	0.217484	276.903
327.0000	2.74767	-0.00110432	0.21879	277.008
326.5000	2.72395	-0.00112569	0.220494	277.147
326.0000	2.51843	-0.00116887	0.22212	277.275
325.5000	2.61119	-0.00118879	0.223646	277.416
325.0000	2.54865	-0.0012215	0.22479	277.552
324.5000	2.72382	-0.00125857	0.226279	277.705
324.0000	2.88686	-0.00131185	0.228147	277.876
323.5000	2.83213	-0.00133723	0.230119	278.046
323.0000	2.6701	-0.00137988	0.231818	278.216
322.5000	2.55605	-0.00143181	0.23349	278.387
322.0000	2.61487	-0.00146917	0.235097	278.565
321.5000	2.85497	-0.00149263	0.237018	278.749
321.0000	2.77037	-0.00153253	0.239021	278.938
320.5000	2.91043	-0.00155119	0.24095	279.115
320.0000	2.99886	-0.00156627	0.242631	279.283
319.5000	2.99427	-0.00160552	0.244311	279.452
319.0000	3.13644	-0.00163048	0.246114	279.655
318.5000	3.07733	-0.00167348	0.247847	279.861
318.0000	3.06284	-0.00170723	0.249439	280.05
317.5000	3.32714	-0.00173418	0.251118	280.227
317.0000	3.18393	-0.00176281	0.252869	280.385
316.5000	3.29379	-0.00178072	0.254847	280.549
316.0000	3.26185	-0.0018098	0.256933	280.726
315.5000	3.2037	-0.00182622	0.258596	280.898
315.0000	3.2457	-0.00185299	0.260548	281.107
314.5000	3.37407	-0.00187527	0.262412	281.308
314.0000	3.6931	-0.00189807	0.26428	281.501
313.5000	3.77231	-0.00192722	0.266302	281.704
313.0000	3.99693	-0.00196112	0.268465	281.93
312.5000	4.04291	-0.00197917	0.270383	282.145
312.0000	3.95717	-0.00202009	0.272725	282.381
311.5000	4.19478	-0.00203819	0.274989	282.621
311.0000	4.17391	-0.00205929	0.277425	282.856
310.5000	4.17596	-0.00207478	0.2797	283.116
310.0000	4.20838	-0.00208252	0.282128	283.369
309.5000	4.35903	-0.00211906	0.284854	283.646
309.0000	4.53919	-0.00214559	0.287964	283.966
308.5000	4.69046	-0.00218845	0.29087	284.296
308.0000	4.59189	-0.00221287	0.293767	284.621
307.5000	4.56168	-0.00225106	0.297018	284.973
307.0000	4.696	-0.00227444	0.300331	285.31
306.5000	4.71879	-0.00230486	0.30401	285.683
306.0000	4.85613	-0.00234095	0.307759	286.049
305.5000	4.63753	-0.00235695	0.311691	286.461
305.0000	4.72016	-0.00238064	0.315632	286.862
304.5000	4.52408	-0.00241735	0.320118	287.301
304.0000	4.59843	-0.00243878	0.325044	287.774
303.5000	4.53352	-0.00246521	0.329935	288.245
303.0000	4.31146	-0.00251122	0.335174	288.772
302.5000	4.21971	-0.00255327	0.340644	289.327
302.0000	4.2341	-0.00259433	0.346426	289.893
301.5000	4.07677	-0.00263217	0.352522	290.486
301.0000	4.06091	-0.0026544	0.358507	291.09
300.5000	3.84304	-0.00268305	0.363786	291.628
300.0000	3.80874	-0.00271932	0.370551	292.282
299.5000	3.73431	-0.00274508	0.376818	292.902
299.0000	3.80278	-0.00275674	0.38312	293.539
298.5000	3.74165	-0.0027729	0.389364	294.185
298.0000	3.97224	-0.00279534	0.395431	294.802
297.5000	3.98082	-0.0027999	0.401794	295.444
297.0000	4.11497	-0.00281526	0.407719	296
296.5000	4.04738	-0.00280759	0.413379	296.55
296.0000	4.05292	-0.00280013	0.418996	297.102
295.5000	3.99115	-0.00279825	0.424408	297.608
295.0000	4.21917	-0.00278127	0.429496	298.066
294.5000	4.25347	-0.00275584	0.434621	298.54
294.0000	4.25289	-0.00271895	0.439564	299.04
293.5000	4.38594	-0.00267793	0.443568	299.462
293.0000	4.46888	-0.00262339	0.447706	299.892
292.5000	4.63617	-0.0025819	0.451863	300.345
292.0000	4.64352	-0.00252577	0.455417	300.751
291.5000	4.62816	-0.00247512	0.458938	301.142
291.0000	4.59341	-0.00242337	0.462235	301.509
290.5000	4.54505	-0.00236072	0.465815	301.897
290.0000	4.47469	-0.0022963	0.469435	302.27
289.5000	4.19166	-0.00224806	0.472582	302.626
289.0000	4.06847	-0.00218046	0.475596	302.976
288.5000	3.88344	-0.00212686	0.478914	303.367
288.0000	3.92909	-0.00204072	0.482172	303.757
287.5000	3.9524	-0.00196332	0.485558	304.17
287.0000	3.97068	-0.00188339	0.488886	304.619
286.5000	3.82626	-0.00182412	0.491932	305.061
286.0000	3.73659	-0.00175802	0.494869	305.456
285.5000	3.69596	-0.00168468	0.49839	305.858
285.0000	3.41961	-0.00164353	0.502138	306.288
284.5000	3.16599	-0.00159547	0.505499	306.681
284.0000	3.07616	-0.00153538	0.509305	307.118
283.5000	3.10719	-0.00146361	0.513418	307.573
283.0000	2.92142	-0.00138791	0.517483	308.027
282.5000	2.71539	-0.00131418	0.521988	308.523
282.0000	2.61371	-0.001232	0.526259	309.029
281.5000	2.61241	-0.0011665	0.530451	309.531
281.0000	2.32797	-0.00110321	0.534984	310.047
280.5000	2.40019	-0.00102056	0.53996	310.632
280.0000	2.10969	-0.000953493	0.545196	311.241
279.5000	1.95976	-0.000904695	0.550528	311.87
279.0000	1.78108	-0.000839774	0.555604	312.483
278.5000	1.61658	-0.000777866	0.561526	313.177
278.0000	1.58262	-0.000703364	0.568562	313.945
277.5000	1.50366	-0.000627227	0.575304	314.682
277.0000	1.38303	-0.000546294	0.582687	315.515
276.5000	1.30152	-0.000429367	0.590246	316.383
276.0000	1.05673	-0.000357626	0.597486	317.205
275.5000	1.0489	-0.000265904	0.605989	318.141
275.0000	0.908378	-0.000205921	0.614996	319.137
274.5000	0.90176	-0.000145749	0.624311	320.188
274.0000	0.672869	-7.01197E-005	0.634586	321.374
273.5000	0.484667	-4.0551E-006	0.644753	322.511
273.0000	0.319907	7.8011E-005	0.656057	323.771
272.5000	0.168553	0.000159411	0.66786	325.096
272.0000	0.0529246	0.000215596	0.680093	326.488
271.5000	0.169439	0.000305869	0.693737	328.041
271.0000	-0.0626671	0.000361379	0.707792	329.608
270.5000	-0.156349	0.000418182	0.722967	331.282
270.0000	-0.0154429	0.000498396	0.738429	333.029
269.5000	-0.111739	0.000556176	0.75462	334.898
269.0000	-0.137041	0.000614837	0.770814	336.758
268.5000	-0.311553	0.000690757	0.788732	338.81
268.0000	-0.523935	0.000720472	0.807748	340.981
267.5000	-0.712325	0.000786682	0.827706	343.275
267.0000	-0.738692	0.00084223	0.849385	345.813
266.5000	-0.602428	0.00089068	0.871816	348.472
266.0000	-0.620338	0.000929159	0.893233	350.972
265.5000	-0.71766	0.000947272	0.91668	353.692
265.0000	-0.691329	0.000968306	0.941767	356.664
264.5000	-0.860151	0.000969832	0.965883	359.567
264.0000	-0.978059	0.00102038	0.990489	362.547
263.5000	-0.903983	0.00103523	1.01697	365.743
263.0000	-1.18921	0.00105989	1.04132	368.703
262.5000	-0.763727	0.00110485	1.06817	372.034
262.0000	-0.630698	0.0010799	1.09355	375.25
261.5000	-0.53666	0.00107711	1.11952	378.528
261.0000	-0.861598	0.00108957	1.14496	381.708
260.5000	-0.530175	0.00108281	1.17202	385.131
260.0000	0.0755313	0.00109661	1.19951	388.651
259.5000	0.772363	0.00104898	1.22736	392.256
259.0000	0.910547	0.00100953	1.25567	395.976
258.5000	1.19209	0.00094994	1.28503	399.814
258.0000	1.13615	0.00092352	1.3154	403.806
257.5000	0.982087	0.000875833	1.34502	407.723
257.0000	1.69575	0.00085263	1.37731	412.024
256.5000	2.44412	0.000799726	1.40908	416.273
256.0000	3.3	0.000760956	1.44406	420.962
255.5000	3.78196	0.000667461	1.48069	425.887
255.0000	4.35291	0.000585379	1.51867	431.048
254.5000	4.7612	0.000511968	1.55626	436.197
254.0000	5.09467	0.000435065	1.59521	441.567
253.5000	5.07337	0.000381157	1.64059	447.813
253.0000	5.20379	0.000257748	1.68309	453.748
252.5000	6.78233	9.18747E-005	1.74807	462.987
252.0000	7.03927	-5.91576E-005	1.80408	471.036
251.5000	6.05893	-0.00013394	1.85464	478.368
251.0000	5.50661	-0.000255448	1.90724	486.032
250.5000	6.81468	-0.000224127	1.9613	494.036
250.0000	8.42475	-0.000329286	2.01408	501.969
249.5000	8.14415	-0.000467361	2.06848	510.253
249.0000	8.01898	-0.000526366	2.12742	519.337
248.5000	7.68795	-0.00062496	2.18532	528.346
248.0000	6.87803	-0.000848686	2.2481	538.263
247.5000	7.2424	-0.000857916	2.30941	548.115
247.0000	7.91803	-0.000983062	2.37584	558.968
246.5000	9.36087	-0.00112141	2.44464	570.355
246.0000	9.17436	-0.00125655	2.51578	582.295
245.5000	6.8791	-0.00129785	2.59262	595.492
245.0000	8.58902	-0.00138656	2.67233	609.435
244.5000	8.40932	-0.00123531	2.75454	624.08
244.0000	9.64534	-0.00130279	2.83888	639.441
243.5000	8.27047	-0.00150717	2.92107	654.746
243.0000	8.34404	-0.00155228	3.00484	670.711
242.5000	5.14755	-0.00158395	3.09809	688.902
242.0000	3.09859	-0.00164825	3.17944	705.134
241.5000	4.03916	-0.00171918	3.26968	723.548
241.0000	3.45571	-0.00164973	3.35078	740.48
240.5000	3.24482	-0.00161774	3.43863	759.342
240.0000	6.33352	-0.00150603	3.51635	776.418
239.5000	7.82907	-0.00134079	3.60313	795.957
239.0000	6.58999	-0.0012497	3.67515	812.529
238.5000	7.39437	-0.00108703	3.74712	829.496
238.0000	9.48837	-0.0010348	3.8175	846.582
237.5000	11.904	-0.000956637	3.87634	861.266
237.0000	9.33978	-0.000872264	3.933	875.776
236.5000	10.4112	-0.000766054	3.98405	889.219
236.0000	8.91301	-0.000716902	4.02768	901.012
235.5000	4.52348	-0.000594401	4.07153	913.335
235.0000	6.22154	-0.000427734	4.09762	920.932
234.5000	8.20491	-0.000637852	4.12215	928.296
234.0000	6.74588	-0.000638362	4.14451	935.27
233.5000	10.1612	-0.000235626	4.16545	942.1
233.0000	7.85567	-2.2828E-006	4.18249	948.121
232.5000	3.25877	-8.8736E-006	4.19498	953.052
232.0000	4.69541	-1.26395E-005	4.20464	957.674
231.5000	4.65784	0.000256837	4.20924	960.724
231.0000	-0.0798134	2.54324E-005	4.21141	963.424
230.5000	-5.22843	-5.05945E-005	4.21091	965.576
230.0000	-6.7444	0.000171439	4.20804	967.143
229.5000	-11.8936	0.000448977	4.20359	968.451
229.0000	-9.23633	0.000749133	4.19775	969.472
228.5000	-7.17557	0.000607934	4.19139	970.355
228.0000	-12.6406	0.000510003	4.18505	971.153
227.5000	-15.9424	0.000515282	4.17745	971.909
227.0000	-15.3202	0.000694779	4.16931	972.565
226.5000	-15.0646	0.000731082	4.16036	973.169
226.0000	-18.64	0.000807368	4.15163	973.64
225.5000	-18.3682	0.00104232	4.14197	974.081
225.0000	-20.0208	0.000793867	4.13102	974.351
224.5000	-17.7588	0.000711099	4.11958	974.573
224.0000	-16.6765	0.000963851	4.10788	974.718
223.5000	-17.6508	0.000968693	4.09601	974.745
223.0000	-16.9318	0.000775654	4.08394	974.678
222.5000	-11.561	0.000963895	4.06859	974.495
222.0000	-9.53459	0.000943062	4.05427	974.273
221.5000	-4.56424	0.000833262	4.03923	974.053
221.0000	-4.76209	0.000477233	4.02588	973.742
220.5000	-6.02049	0.000538952	4.01245	973.441
220.0000	-4.37684	0.000554371	3.99776	973.001

##### Extended Information
[Comments]
Sample name	JS187+JS190_5E-5_H2O_52-48_100EQDT+72H
Comment
User
Division
Company	Labo systeme complexes hors equilibre

[Detailed Information]
Creation date	1/26/2024 10:40 AM

Data array type	Linear data array * 4
Horizontal axis	Wavelength [nm]
Vertical axis(1)	CD [mdeg]
Vertical axis(2)	LD [dOD]
Vertical axis(3)	Abs
Vertical axis(4)	HT [V]
Start	700 nm
End	220 nm
Data interval	0.5 nm
Data points	961     

[Measurement Information]
Instrument name	CD Jasco
Model name	J-1500
Serial No.	A005261638

Detector	PM-539
Detector S/N	A0052PM539
  Lock-in amp.	X mode
  HT volt	Auto

Detector	EXPML-535
Detector S/N	A0001
  Lock-in amp.	X mode
  HT volt	Auto

Measurement date	1/26/2024 10:39 AM

Overload detect	1
Photometric mode	CD, LD, Abs, HT
Measure range	700 - 220 nm
Data pitch	0.5 nm
CD scale	200 mdeg/1.0 dOD
FL scale	200 mdeg/1.0 dOD
D.I.T.	1 sec
Bandwidth	1.00 nm
Start mode	Immediately
Scanning speed	500 nm/min
Baseline correction	Baseline
Shutter control	Auto


