TITLE	JS187+JS190_5E-5_H2O_65-35_100EQDT+72H
DATA TYPE	
ORIGIN	JASCO
OWNER	
DATE	24/01/26
TIME	09:55:12
SPECTROMETER/DATA SYSTEM	
LOCALE	1033
RESOLUTION	
DELTAX	-0.5
XUNITS	NANOMETERS
YUNITS	CD [mdeg]
Y2UNITS	LD [dOD]
Y3UNITS	ABSORBANCE
Y4UNITS	HT [V]
FIRSTX	  700.0000
LASTX	  220.0000
NPOINTS	     961
FIRSTY	     1.26953
MAXY	    27.20950
MINY	   -11.25064
XYDATA
700.0000	1.26953	-0.000674151	0.0120814	305.503
699.5000	1.08643	-0.000680979	0.0114424	305.236
699.0000	1.16364	-0.000674886	0.0108345	304.927
698.5000	1.30193	-0.000647142	0.0104932	304.558
698.0000	1.31836	-0.000650082	0.00976876	304.153
697.5000	1.20499	-0.000619503	0.0085651	303.729
697.0000	0.985385	-0.000607439	0.0071325	303.264
696.5000	0.870982	-0.000591966	0.00646092	302.789
696.0000	0.879925	-0.00057673	0.00643711	302.257
695.5000	0.780736	-0.000568781	0.00631353	301.718
695.0000	0.6728	-0.000575707	0.00664576	301.223
694.5000	0.503662	-0.00059771	0.00684331	300.737
694.0000	0.610765	-0.000587627	0.00813971	300.277
693.5000	0.822253	-0.00058342	0.00964693	299.843
693.0000	0.788937	-0.000582444	0.0118339	299.471
692.5000	0.583268	-0.000569836	0.0140619	299.127
692.0000	0.445812	-0.000567398	0.0163081	298.825
691.5000	0.584318	-0.000589179	0.018834	298.559
691.0000	0.575645	-0.00058263	0.0212978	298.306
690.5000	0.567198	-0.000597243	0.0229564	298.083
690.0000	0.629725	-0.000602071	0.0243774	297.884
689.5000	0.530665	-0.000622092	0.0257795	297.708
689.0000	0.340193	-0.000617989	0.0276555	297.559
688.5000	0.506974	-0.000623726	0.0293768	297.475
688.0000	0.21119	-0.000613133	0.0318836	297.493
687.5000	0.163001	-0.000618949	0.0349332	297.61
687.0000	0.184096	-0.000596858	0.0378055	297.79
686.5000	0.114374	-0.000596188	0.0402564	298.019
686.0000	0.203931	-0.000597732	0.0414205	298.261
685.5000	0.354548	-0.000602249	0.0417573	298.528
685.0000	0.323794	-0.000596979	0.0417146	298.795
684.5000	0.215893	-0.000607142	0.0410845	299.05
684.0000	0.53081	-0.000599982	0.0397874	299.279
683.5000	0.38078	-0.000611448	0.0388715	299.507
683.0000	0.33335	-0.000584339	0.037853	299.738
682.5000	0.199519	-0.000589496	0.0374046	299.977
682.0000	0.394883	-0.000581352	0.0368917	300.249
681.5000	0.54357	-0.000581734	0.036984	300.53
681.0000	0.658938	-0.000577209	0.0371422	300.83
680.5000	0.802146	-0.000580454	0.0372806	301.104
680.0000	0.654852	-0.000607656	0.0363359	301.345
679.5000	0.786555	-0.000608202	0.0348622	301.529
679.0000	0.879658	-0.000595168	0.0318518	301.613
678.5000	1.02595	-0.000600873	0.0299461	301.667
678.0000	1.1883	-0.000588725	0.0279899	301.677
677.5000	1.36383	-0.000579525	0.0267124	301.659
677.0000	1.18099	-0.000578287	0.0261075	301.633
676.5000	1.36019	-0.000572964	0.0262518	301.607
676.0000	1.37956	-0.000579112	0.0264415	301.582
675.5000	1.08957	-0.000577301	0.0266386	301.557
675.0000	1.04134	-0.000585432	0.0271931	301.552
674.5000	1.1223	-0.000610082	0.0280834	301.548
674.0000	1.03432	-0.000574185	0.0289423	301.543
673.5000	1.0171	-0.000573741	0.0299054	301.549
673.0000	0.647765	-0.000544054	0.0300463	301.572
672.5000	0.575105	-0.000556196	0.0301585	301.602
672.0000	0.727817	-0.00053259	0.0306225	301.642
671.5000	0.699659	-0.000507628	0.0315096	301.68
671.0000	0.468933	-0.000518851	0.0324669	301.727
670.5000	0.376646	-0.000533931	0.0335928	301.772
670.0000	0.0775563	-0.000504973	0.0345251	301.823
669.5000	0.0623408	-0.000511064	0.0349855	301.882
669.0000	0.0475544	-0.000504952	0.0356263	301.956
668.5000	0.152996	-0.000520318	0.0362759	302.035
668.0000	0.00186872	-0.000536787	0.0366513	302.121
667.5000	0.285526	-0.000522926	0.0369968	302.22
667.0000	0.133693	-0.000516617	0.0369549	302.31
666.5000	0.18422	-0.000507019	0.0370472	302.412
666.0000	0.124865	-0.000479886	0.0364626	302.525
665.5000	0.101098	-0.00050262	0.0363683	302.644
665.0000	0.375382	-0.000504645	0.0370301	302.76
664.5000	0.67589	-0.000504307	0.0378306	302.859
664.0000	0.506449	-0.00051657	0.0380704	302.971
663.5000	0.66989	-0.000539162	0.0370828	303.058
663.0000	0.773279	-0.000540806	0.0369107	303.144
662.5000	0.742596	-0.00050585	0.0366203	303.222
662.0000	0.924473	-0.000526628	0.0362376	303.287
661.5000	0.758644	-0.000523525	0.0363148	303.333
661.0000	0.650465	-0.000533839	0.0359507	303.363
660.5000	0.44451	-0.000514958	0.035407	303.385
660.0000	0.699886	-0.000483206	0.0351164	303.396
659.5000	0.701011	-0.000471537	0.0344073	303.398
659.0000	0.736608	-0.000476554	0.0338556	303.38
658.5000	0.329565	-0.000470588	0.0334874	303.345
658.0000	0.445093	-0.000476396	0.0334402	303.289
657.5000	0.790704	-0.000473475	0.0328403	303.215
657.0000	0.430917	-0.000469732	0.0331531	303.124
656.5000	0.300294	-0.000462991	0.0322456	303.002
656.0000	0.444737	-0.000456186	0.0312273	302.844
655.5000	0.477583	-0.000454591	0.0316634	302.673
655.0000	0.356954	-0.000446517	0.031488	302.496
654.5000	0.391577	-0.000452064	0.0307791	302.318
654.0000	0.192753	-0.00046518	0.030898	302.14
653.5000	0.0805021	-0.000462644	0.0316847	301.968
653.0000	0.118066	-0.000463431	0.032718	301.799
652.5000	0.0728839	-0.000434013	0.0336731	301.649
652.0000	0.178147	-0.000444621	0.0348969	301.535
651.5000	0.0459725	-0.000442368	0.0366405	301.451
651.0000	0.0971099	-0.000442909	0.0388769	301.398
650.5000	-0.053501	-0.000450359	0.0402997	301.365
650.0000	0.25174	-0.000456565	0.042113	301.354
649.5000	0.0624336	-0.000445875	0.0434079	301.369
649.0000	0.0762494	-0.000453684	0.0449139	301.404
648.5000	0.345178	-0.000468506	0.0456209	301.473
648.0000	0.292202	-0.000448991	0.0468883	301.585
647.5000	0.102226	-0.000433748	0.0480612	301.715
647.0000	0.0392446	-0.000443265	0.0486758	301.865
646.5000	0.20128	-0.000444497	0.0492685	302.033
646.0000	0.418876	-0.000452488	0.0505457	302.184
645.5000	0.464569	-0.000430349	0.0511092	302.34
645.0000	0.388121	-0.000419794	0.0506187	302.492
644.5000	0.477915	-0.000415167	0.0505055	302.632
644.0000	0.481887	-0.000426042	0.0503651	302.733
643.5000	0.43279	-0.000440389	0.049856	302.81
643.0000	0.391528	-0.00045248	0.049301	302.854
642.5000	0.57316	-0.000446467	0.0488127	302.876
642.0000	0.766396	-0.000422354	0.0486465	302.891
641.5000	0.844076	-0.000430953	0.0483414	302.886
641.0000	0.627663	-0.000432254	0.0483425	302.863
640.5000	0.548818	-0.000409312	0.0486226	302.815
640.0000	0.653284	-0.000400259	0.0491718	302.759
639.5000	0.669878	-0.000424662	0.0501291	302.7
639.0000	0.657842	-0.000426642	0.050891	302.638
638.5000	0.702903	-0.000438992	0.0520632	302.561
638.0000	0.712902	-0.000429231	0.0526392	302.482
637.5000	0.812118	-0.000411354	0.0529921	302.399
637.0000	0.854967	-0.000411453	0.0542142	302.314
636.5000	0.935778	-0.000429887	0.0550313	302.219
636.0000	1.0749	-0.000446277	0.0554188	302.151
635.5000	1.11978	-0.000436766	0.0559333	302.087
635.0000	0.921031	-0.00041772	0.056892	302.028
634.5000	0.715623	-0.000435176	0.057624	301.963
634.0000	0.514506	-0.000436367	0.0583576	301.908
633.5000	0.292211	-0.000443061	0.0587632	301.862
633.0000	0.390966	-0.000446459	0.0597699	301.825
632.5000	0.497669	-0.000454704	0.0600435	301.781
632.0000	0.647111	-0.000452884	0.0605397	301.757
631.5000	0.521257	-0.000457103	0.0611785	301.72
631.0000	0.596863	-0.000442205	0.0618097	301.687
630.5000	0.508958	-0.00044208	0.0624033	301.652
630.0000	0.456638	-0.000422953	0.0630625	301.615
629.5000	0.55769	-0.000431999	0.0638334	301.576
629.0000	0.507336	-0.000430032	0.0643375	301.534
628.5000	0.491015	-0.000435787	0.0647178	301.499
628.0000	0.632274	-0.000417777	0.0653413	301.461
627.5000	0.508671	-0.000405628	0.0662685	301.419
627.0000	0.409662	-0.000411076	0.0667891	301.388
626.5000	0.5759	-0.000411244	0.0670346	301.36
626.0000	0.616445	-0.000410625	0.0673125	301.327
625.5000	0.769962	-0.00040909	0.0682033	301.293
625.0000	0.745341	-0.000423085	0.0691617	301.26
624.5000	0.834043	-0.00041781	0.0701865	301.235
624.0000	0.872413	-0.0004027	0.0710817	301.218
623.5000	0.783292	-0.000392035	0.0721241	301.22
623.0000	0.652295	-0.000389803	0.0730646	301.228
622.5000	0.816727	-0.000388254	0.0742806	301.259
622.0000	0.634685	-0.000401325	0.0751372	301.293
621.5000	0.697865	-0.000399864	0.0760564	301.339
621.0000	0.733324	-0.000398956	0.0770642	301.399
620.5000	0.604847	-0.000421424	0.0777774	301.466
620.0000	0.767103	-0.000419391	0.0783889	301.547
619.5000	0.679994	-0.000425459	0.0794598	301.663
619.0000	0.68889	-0.000434659	0.080911	301.788
618.5000	0.706969	-0.000452407	0.0827119	301.921
618.0000	0.657782	-0.000454019	0.084607	302.066
617.5000	0.964659	-0.000463202	0.0854424	302.212
617.0000	0.879553	-0.000437858	0.0861442	302.379
616.5000	1.01154	-0.000448348	0.0868988	302.546
616.0000	0.995711	-0.000466163	0.0880613	302.708
615.5000	0.836173	-0.000482069	0.0888371	302.871
615.0000	0.980611	-0.000473127	0.0894153	303.024
614.5000	1.16125	-0.000478555	0.0896874	303.166
614.0000	1.14201	-0.000480613	0.0901064	303.317
613.5000	1.38729	-0.000482365	0.0908666	303.48
613.0000	1.23819	-0.000476632	0.0915224	303.648
612.5000	1.42675	-0.000459852	0.0922461	303.813
612.0000	1.7108	-0.000442341	0.0930967	303.979
611.5000	1.58938	-0.000432134	0.0940881	304.129
611.0000	1.60905	-0.000444574	0.094622	304.284
610.5000	1.85668	-0.000435436	0.0950523	304.437
610.0000	1.9814	-0.000444063	0.095048	304.555
609.5000	1.82458	-0.000451097	0.0959168	304.695
609.0000	1.74222	-0.000454622	0.096731	304.826
608.5000	1.85382	-0.000458564	0.0979109	304.957
608.0000	1.60047	-0.000448452	0.0985565	305.068
607.5000	1.58587	-0.00046118	0.0987936	305.178
607.0000	1.79245	-0.000474493	0.0995511	305.304
606.5000	1.68904	-0.000484405	0.100449	305.429
606.0000	1.74884	-0.000458542	0.101999	305.55
605.5000	1.38722	-0.000467212	0.103043	305.653
605.0000	1.17336	-0.000488734	0.104536	305.764
604.5000	1.45769	-0.000467196	0.105692	305.864
604.0000	0.949066	-0.000476216	0.106963	305.948
603.5000	0.871143	-0.000487709	0.108484	306.039
603.0000	1.10356	-0.000498719	0.109382	306.11
602.5000	0.898447	-0.000505111	0.111003	306.205
602.0000	1.16912	-0.000502542	0.112639	306.284
601.5000	1.2135	-0.000496451	0.114296	306.377
601.0000	1.30785	-0.000502156	0.115764	306.452
600.5000	1.36574	-0.000484576	0.117787	306.527
600.0000	1.36661	-0.000469053	0.119364	306.583
599.5000	1.39011	-0.000456269	0.121928	306.648
599.0000	1.23504	-0.000452903	0.123868	306.689
598.5000	1.22555	-0.000440038	0.126299	306.717
598.0000	1.38956	-0.000427087	0.128298	306.744
597.5000	1.28867	-0.0004278	0.130288	306.789
597.0000	1.35556	-0.000435302	0.132525	306.828
596.5000	1.42159	-0.000447852	0.134905	306.856
596.0000	1.52198	-0.000424171	0.137385	306.888
595.5000	1.49787	-0.000432932	0.139699	306.919
595.0000	1.42913	-0.000436274	0.142251	306.935
594.5000	1.55107	-0.00042762	0.144846	306.955
594.0000	1.66216	-0.000411257	0.146968	306.982
593.5000	1.40074	-0.000401362	0.149563	306.999
593.0000	1.40901	-0.000387973	0.152792	307.045
592.5000	1.63415	-0.000372855	0.15554	307.111
592.0000	1.80368	-0.000387531	0.158224	307.193
591.5000	1.71882	-0.000396776	0.160431	307.259
591.0000	1.89989	-0.000379803	0.163332	307.346
590.5000	2.08998	-0.0003911	0.166028	307.455
590.0000	2.16292	-0.000396508	0.168986	307.579
589.5000	2.46381	-0.000389758	0.172123	307.706
589.0000	2.59727	-0.000370673	0.175235	307.836
588.5000	2.91376	-0.000375653	0.17833	307.989
588.0000	3.05884	-0.000366279	0.18191	308.174
587.5000	3.27089	-0.00036564	0.185751	308.4
587.0000	3.3428	-0.000353687	0.18961	308.664
586.5000	3.71532	-0.000332818	0.193204	308.912
586.0000	3.37568	-0.000315724	0.197459	309.174
585.5000	3.52775	-0.000297968	0.201447	309.462
585.0000	3.83858	-0.000270468	0.205248	309.749
584.5000	4.14489	-0.000243499	0.209067	310.038
584.0000	4.48062	-0.000220925	0.213553	310.368
583.5000	4.61297	-0.000182423	0.218224	310.713
583.0000	4.80483	-0.000157898	0.223622	311.108
582.5000	5.35591	-0.000121129	0.228563	311.498
582.0000	5.54179	-0.000104326	0.233954	311.929
581.5000	5.85612	-6.35731E-005	0.23966	312.396
581.0000	6.04624	-5.67032E-005	0.245787	312.879
580.5000	6.3964	-5.24657E-006	0.252091	313.386
580.0000	6.65157	3.08533E-005	0.258207	313.894
579.5000	6.95255	5.10509E-005	0.264202	314.405
579.0000	7.38365	9.51698E-005	0.270441	314.93
578.5000	7.69323	0.000128084	0.277212	315.466
578.0000	7.99028	0.000165852	0.284139	316.049
577.5000	8.62136	0.000203961	0.291029	316.687
577.0000	9.12663	0.000246317	0.298694	317.314
576.5000	9.7943	0.000280668	0.307012	318.001
576.0000	10.158	0.000319744	0.315262	318.689
575.5000	10.522	0.000356169	0.323902	319.402
575.0000	11.2943	0.00042039	0.331613	320.081
574.5000	11.7073	0.000478824	0.340451	320.841
574.0000	12.2711	0.000519484	0.349352	321.58
573.5000	12.9394	0.000577788	0.358274	322.333
573.0000	13.4459	0.000641098	0.367301	323.146
572.5000	14.1232	0.00068748	0.37584	323.92
572.0000	14.9163	0.000731729	0.38546	324.81
571.5000	15.6814	0.000790744	0.395115	325.681
571.0000	16.5636	0.000871836	0.4059	326.609
570.5000	17.5151	0.000929544	0.41659	327.584
570.0000	18.5245	0.000980238	0.426834	328.528
569.5000	19.4315	0.00103313	0.438114	329.516
569.0000	20.0077	0.00108519	0.449379	330.498
568.5000	20.6444	0.00113234	0.459719	331.457
568.0000	21.4449	0.00116835	0.46999	332.439
567.5000	22.1808	0.00122075	0.480391	333.428
567.0000	22.8195	0.00126317	0.490997	334.401
566.5000	23.7613	0.00129285	0.501294	335.327
566.0000	24.253	0.00131929	0.511527	336.248
565.5000	25.0386	0.00136383	0.521195	337.147
565.0000	25.7602	0.00137842	0.530883	338.017
564.5000	26.0254	0.00140936	0.540566	338.88
564.0000	26.4693	0.00144426	0.549654	339.655
563.5000	26.999	0.00143821	0.55802	340.391
563.0000	26.9731	0.00143163	0.566319	341.151
562.5000	27.0361	0.00141146	0.573943	341.82
562.0000	27.2095	0.00141039	0.581256	342.453
561.5000	26.9299	0.00137108	0.589211	343.102
561.0000	26.9474	0.00136864	0.596274	343.702
560.5000	27.0891	0.00135898	0.602734	344.25
560.0000	27.0776	0.00131931	0.60916	344.768
559.5000	26.94	0.001285	0.615261	345.206
559.0000	27.0572	0.00123711	0.620425	345.573
558.5000	26.4424	0.00115732	0.624563	345.869
558.0000	26.2877	0.00110682	0.627947	346.098
557.5000	26.1693	0.00104265	0.631353	346.295
557.0000	25.8927	0.000992889	0.634447	346.445
556.5000	25.4038	0.000896795	0.636694	346.556
556.0000	25.0912	0.00081406	0.637928	346.614
555.5000	24.357	0.000729373	0.639188	346.64
555.0000	24.1763	0.000665049	0.640029	346.601
554.5000	23.6402	0.000593884	0.640654	346.498
554.0000	23.5781	0.000551437	0.640412	346.364
553.5000	23.1536	0.000520013	0.639715	346.181
553.0000	22.729	0.000463745	0.638888	345.995
552.5000	22.1321	0.000378909	0.638349	345.786
552.0000	21.783	0.000300222	0.637372	345.526
551.5000	21.5082	0.000258009	0.636072	345.245
551.0000	20.7909	0.0002072	0.63428	344.955
550.5000	20.4517	0.000216465	0.632374	344.637
550.0000	19.9539	0.000204554	0.63056	344.3
549.5000	19.4309	0.000170893	0.628933	343.964
549.0000	19.4978	0.000141803	0.626696	343.626
548.5000	19.457	0.000140247	0.624407	343.295
548.0000	19.1214	0.000161974	0.622951	342.927
547.5000	19.1752	0.000174416	0.621488	342.583
547.0000	19.0087	0.000175588	0.62014	342.23
546.5000	18.8905	0.0001757	0.618671	341.93
546.0000	18.9762	0.000184765	0.616707	341.65
545.5000	18.8024	0.000192238	0.615858	341.376
545.0000	18.8744	0.000188035	0.615075	341.156
544.5000	19.0167	0.000197076	0.614108	340.905
544.0000	19.1469	0.00022035	0.613099	340.697
543.5000	18.8368	0.000260708	0.61246	340.514
543.0000	19.0421	0.000258256	0.612234	340.359
542.5000	19.6111	0.000274005	0.612438	340.218
542.0000	19.927	0.000280128	0.612746	340.123
541.5000	20.1956	0.000277082	0.613143	340.057
541.0000	20.4097	0.000302207	0.613495	340.01
540.5000	20.3507	0.000339648	0.614711	339.978
540.0000	20.6894	0.000338311	0.616189	339.957
539.5000	20.9537	0.000356332	0.617663	339.989
539.0000	21.3484	0.000366574	0.619245	340.069
538.5000	21.5409	0.000366026	0.621164	340.163
538.0000	21.9164	0.000412472	0.623611	340.269
537.5000	22.0543	0.000426827	0.62614	340.394
537.0000	22.3417	0.000431975	0.628773	340.553
536.5000	22.579	0.000457575	0.631828	340.74
536.0000	23.0949	0.000481335	0.6354	340.964
535.5000	23.6589	0.000534993	0.639057	341.205
535.0000	24.0712	0.000572108	0.643185	341.478
534.5000	24.243	0.000593237	0.647044	341.734
534.0000	24.5393	0.00063428	0.651096	342.015
533.5000	24.7307	0.000660794	0.655203	342.324
533.0000	24.9952	0.000654584	0.6592	342.632
532.5000	25.0883	0.000643887	0.663486	342.978
532.0000	25.0843	0.000639945	0.668248	343.36
531.5000	25.072	0.000629574	0.673211	343.749
531.0000	24.9211	0.000634815	0.678839	344.144
530.5000	25.3061	0.000632619	0.684033	344.535
530.0000	24.9911	0.000611732	0.689282	344.95
529.5000	25.1341	0.000591839	0.694537	345.366
529.0000	25.094	0.000575952	0.699759	345.751
528.5000	25.2042	0.000562193	0.704726	346.131
528.0000	25.0648	0.000506325	0.70949	346.494
527.5000	24.9224	0.000464175	0.714449	346.85
527.0000	24.8438	0.000401506	0.719997	347.254
526.5000	24.5921	0.000351167	0.724848	347.623
526.0000	24.2448	0.000318697	0.730239	348.016
525.5000	23.9232	0.000238365	0.735574	348.401
525.0000	23.5591	0.000195344	0.740712	348.771
524.5000	23.1793	0.000161975	0.74555	349.097
524.0000	22.4991	9.52678E-005	0.749947	349.383
523.5000	22.2675	8.79342E-005	0.754034	349.67
523.0000	21.8611	1.89106E-005	0.75794	349.938
522.5000	21.4224	-2.38359E-005	0.761465	350.194
522.0000	21.0945	-9.66709E-005	0.765179	350.441
521.5000	20.8666	-0.000137457	0.769179	350.694
521.0000	20.1517	-0.000180528	0.772722	350.92
520.5000	19.6652	-0.000224944	0.776199	351.14
520.0000	19.0721	-0.000268088	0.779299	351.332
519.5000	18.5973	-0.000302138	0.782673	351.524
519.0000	17.939	-0.00036078	0.785571	351.693
518.5000	17.5505	-0.000414783	0.78796	351.842
518.0000	17.1282	-0.000511122	0.790756	351.998
517.5000	16.3021	-0.000576791	0.793567	352.147
517.0000	15.7931	-0.00066488	0.796562	352.292
516.5000	15.708	-0.000722055	0.799573	352.434
516.0000	15.5071	-0.000779747	0.802506	352.591
515.5000	14.9112	-0.000844311	0.804966	352.747
515.0000	14.5646	-0.000916639	0.807294	352.878
514.5000	14.2926	-0.000961563	0.80965	353.027
514.0000	13.6537	-0.00100778	0.811868	353.151
513.5000	13.2092	-0.00107143	0.814127	353.27
513.0000	12.8479	-0.00114038	0.816035	353.39
512.5000	12.2285	-0.00118562	0.818496	353.543
512.0000	11.6535	-0.00125537	0.820931	353.686
511.5000	11.3535	-0.00130518	0.822932	353.823
511.0000	10.9252	-0.00134464	0.824956	353.944
510.5000	10.4631	-0.0014111	0.827221	354.064
510.0000	10.0548	-0.00143027	0.829439	354.183
509.5000	9.72559	-0.00145308	0.831425	354.292
509.0000	9.57273	-0.00150738	0.833315	354.406
508.5000	9.03886	-0.00154165	0.834919	354.477
508.0000	8.53441	-0.00159313	0.836674	354.53
507.5000	8.26594	-0.0016264	0.838454	354.578
507.0000	7.87971	-0.00163774	0.840463	354.643
506.5000	7.45362	-0.00169226	0.842263	354.691
506.0000	7.45254	-0.00170564	0.843647	354.738
505.5000	6.82935	-0.00175755	0.845063	354.787
505.0000	6.58256	-0.0017978	0.846536	354.833
504.5000	6.0023	-0.00184704	0.847844	354.848
504.0000	5.94195	-0.00189698	0.848881	354.84
503.5000	6.3091	-0.00191885	0.849482	354.79
503.0000	5.9321	-0.00197048	0.850109	354.726
502.5000	5.5777	-0.00201001	0.850497	354.656
502.0000	5.07875	-0.00205044	0.8506	354.563
501.5000	4.90334	-0.00210293	0.850623	354.441
501.0000	4.23289	-0.00216835	0.850471	354.289
500.5000	3.80789	-0.00217406	0.850176	354.094
500.0000	3.85497	-0.00222078	0.849621	353.854
499.5000	3.49413	-0.00226428	0.848309	353.558
499.0000	3.23267	-0.00233237	0.846494	353.136
498.5000	2.76312	-0.00240215	0.844379	352.599
498.0000	2.22732	-0.00245965	0.842102	351.956
497.5000	1.657	-0.0025175	0.839882	351.152
497.0000	1.17397	-0.0025644	0.838039	350.294
496.5000	0.728894	-0.00257668	0.836421	349.388
496.0000	0.594742	-0.00264198	0.835993	348.665
495.5000	-0.252858	-0.00266909	0.835833	348.105
495.0000	-0.554208	-0.00272906	0.834909	347.684
494.5000	-1.00516	-0.00277229	0.833214	347.288
494.0000	-1.22308	-0.00279578	0.831199	346.905
493.5000	-1.91911	-0.00283402	0.828919	346.493
493.0000	-2.00802	-0.00285294	0.826972	346.13
492.5000	-2.58619	-0.00290206	0.824957	345.762
492.0000	-3.23152	-0.0029609	0.822698	345.383
491.5000	-4.08714	-0.00303335	0.820405	345.047
491.0000	-4.72945	-0.00307681	0.818271	344.726
490.5000	-5.37952	-0.00312361	0.816132	344.444
490.0000	-5.5666	-0.00315931	0.813877	344.202
489.5000	-5.73469	-0.00319903	0.811564	344.015
489.0000	-6.42129	-0.00323132	0.809043	343.835
488.5000	-6.41284	-0.00328788	0.805936	343.61
488.0000	-6.75023	-0.00333986	0.801662	343.19
487.5000	-7.28377	-0.00337182	0.796869	342.554
487.0000	-7.81073	-0.00342502	0.792987	341.817
486.5000	-8.36963	-0.00346042	0.788958	340.945
486.0000	-8.47868	-0.00351115	0.785281	340.06
485.5000	-8.69239	-0.00358539	0.782831	339.19
485.0000	-9.30814	-0.00363043	0.780961	338.383
484.5000	-9.44289	-0.00367925	0.778822	337.729
484.0000	-9.87206	-0.00372343	0.776083	337.147
483.5000	-10.1147	-0.00374337	0.773481	336.667
483.0000	-10.1623	-0.00377337	0.770232	336.203
482.5000	-10.0589	-0.00381272	0.766755	335.802
482.0000	-10.0957	-0.0038343	0.763084	335.439
481.5000	-10.4282	-0.00386352	0.759595	335.093
481.0000	-10.3309	-0.00388566	0.756353	334.78
480.5000	-10.4316	-0.00392158	0.752806	334.481
480.0000	-10.7714	-0.00394068	0.748937	334.19
479.5000	-10.9383	-0.00395115	0.744927	333.895
479.0000	-10.8405	-0.00397283	0.739409	333.475
478.5000	-10.8672	-0.0039892	0.733326	332.819
478.0000	-10.8482	-0.00400829	0.728244	331.917
477.5000	-11.0083	-0.00400435	0.725938	331.137
477.0000	-11.2506	-0.00398279	0.724073	330.582
476.5000	-10.9066	-0.00400108	0.719269	329.994
476.0000	-10.9393	-0.00399389	0.712987	329.197
475.5000	-10.5947	-0.00398186	0.706435	328.174
475.0000	-10.7276	-0.00397914	0.699802	326.939
474.5000	-10.6804	-0.00397042	0.694183	325.631
474.0000	-10.7887	-0.00396164	0.689018	324.197
473.5000	-10.9267	-0.00395033	0.683414	322.551
473.0000	-10.9638	-0.003954	0.677589	320.731
472.5000	-11.081	-0.00393838	0.672826	318.801
472.0000	-11.1013	-0.00391191	0.670501	317.192
471.5000	-10.8263	-0.00390508	0.668981	315.926
471.0000	-10.9422	-0.0038959	0.667573	315.173
470.5000	-10.9134	-0.00387819	0.665984	314.695
470.0000	-10.9754	-0.00385521	0.663896	314.536
469.5000	-10.745	-0.00385674	0.659398	314.434
469.0000	-10.6178	-0.00385321	0.650998	313.988
468.5000	-10.8604	-0.0038379	0.642485	313.139
468.0000	-10.8153	-0.00381369	0.636267	312.192
467.5000	-10.6987	-0.00380486	0.631864	311.392
467.0000	-10.478	-0.00378505	0.628611	310.799
466.5000	-10.4246	-0.00376816	0.62595	310.426
466.0000	-10.4066	-0.00374221	0.622459	310.231
465.5000	-10.3166	-0.00372639	0.618529	310.238
465.0000	-10.303	-0.0036986	0.614275	310.514
464.5000	-9.90872	-0.00367034	0.608563	310.944
464.0000	-9.91906	-0.00365245	0.600755	311.246
463.5000	-9.88035	-0.00363709	0.591391	311.198
463.0000	-9.6055	-0.00360475	0.582327	310.821
462.5000	-9.4437	-0.00357614	0.574813	310.28
462.0000	-9.22323	-0.00353134	0.568738	309.715
461.5000	-9.07963	-0.00348854	0.563331	309.238
461.0000	-8.84198	-0.00345882	0.558065	308.883
460.5000	-8.37159	-0.00340854	0.552391	308.641
460.0000	-8.27411	-0.00336938	0.546908	308.501
459.5000	-8.22433	-0.00333838	0.540946	308.404
459.0000	-8.11972	-0.00330495	0.534021	308.261
458.5000	-8.05386	-0.00327483	0.526549	308.023
458.0000	-7.83503	-0.00325108	0.518624	307.638
457.5000	-7.61037	-0.00320263	0.510507	307.031
457.0000	-7.34498	-0.00316815	0.502751	306.231
456.5000	-7.2389	-0.00312459	0.496718	305.475
456.0000	-7.10047	-0.00308597	0.490353	304.8
455.5000	-6.96063	-0.00304436	0.482103	303.971
455.0000	-6.74239	-0.00299515	0.474365	303.012
454.5000	-6.64767	-0.00294562	0.468545	302.103
454.0000	-6.27746	-0.00289939	0.463684	301.455
453.5000	-6.04427	-0.00284552	0.457624	300.994
453.0000	-6.0539	-0.00281247	0.450761	300.526
452.5000	-5.94198	-0.00276213	0.444158	300.039
452.0000	-5.99009	-0.00272415	0.43777	299.512
451.5000	-5.74814	-0.00269329	0.430965	298.95
451.0000	-5.34521	-0.00264755	0.424605	298.421
450.5000	-5.14163	-0.0025967	0.41788	297.842
450.0000	-4.9206	-0.00255187	0.41201	297.296
449.5000	-4.82187	-0.00251117	0.406875	296.852
449.0000	-4.55843	-0.00246413	0.402332	296.584
448.5000	-4.45684	-0.00241788	0.39634	296.328
448.0000	-4.12434	-0.00237886	0.389736	295.955
447.5000	-3.73131	-0.00232691	0.384509	295.58
447.0000	-3.71842	-0.00228102	0.380956	295.424
446.5000	-3.73891	-0.0022332	0.376948	295.445
446.0000	-3.39731	-0.00220145	0.370045	295.325
445.5000	-3.40045	-0.00216453	0.362835	294.909
445.0000	-3.38055	-0.00211862	0.356776	294.33
444.5000	-3.2887	-0.00207656	0.351104	293.71
444.0000	-3.14827	-0.00203466	0.345679	293.088
443.5000	-3.04671	-0.00198419	0.340196	292.393
443.0000	-3.01533	-0.00193595	0.335562	291.764
442.5000	-3.0179	-0.00189826	0.33123	291.171
442.0000	-2.9912	-0.00187103	0.327236	290.682
441.5000	-2.97716	-0.00184464	0.322603	290.165
441.0000	-2.8297	-0.00179771	0.318415	289.708
440.5000	-2.94985	-0.00176948	0.314197	289.249
440.0000	-2.85622	-0.00173044	0.309824	288.782
439.5000	-2.71676	-0.00169483	0.305314	288.309
439.0000	-2.75911	-0.00165729	0.300356	287.802
438.5000	-2.39283	-0.00160425	0.295188	287.296
438.0000	-2.3985	-0.00155685	0.289858	286.796
437.5000	-2.37373	-0.00152652	0.284812	286.313
437.0000	-2.01628	-0.00149278	0.279648	285.837
436.5000	-1.69478	-0.00146416	0.275617	285.432
436.0000	-1.63119	-0.00141465	0.271867	285.07
435.5000	-1.45808	-0.00138288	0.26766	284.73
435.0000	-1.4676	-0.00134191	0.263268	284.411
434.5000	-1.38174	-0.00130359	0.258808	284.087
434.0000	-1.29323	-0.00126555	0.254375	283.733
433.5000	-1.14335	-0.00122049	0.250274	283.381
433.0000	-1.15001	-0.00118567	0.246296	282.988
432.5000	-0.905154	-0.00114647	0.242477	282.605
432.0000	-0.614116	-0.00110892	0.238364	282.201
431.5000	-0.618243	-0.00108577	0.234222	281.784
431.0000	-0.490994	-0.00105597	0.230429	281.385
430.5000	-0.640171	-0.00101961	0.226709	280.982
430.0000	-0.742209	-0.00100338	0.223499	280.611
429.5000	-0.609483	-0.000972425	0.219972	280.216
429.0000	-0.49986	-0.000933431	0.216435	279.816
428.5000	-0.439565	-0.000889634	0.212784	279.414
428.0000	-0.570265	-0.000859626	0.20882	279.008
427.5000	-0.507619	-0.00085009	0.205644	278.654
427.0000	-0.649482	-0.000835541	0.202539	278.295
426.5000	-0.55463	-0.000811167	0.199507	277.934
426.0000	-0.617135	-0.000778464	0.196531	277.56
425.5000	-0.415843	-0.000757675	0.193649	277.154
425.0000	-0.473051	-0.000743589	0.190474	276.715
424.5000	-0.285399	-0.000710641	0.187322	276.244
424.0000	-0.194109	-0.000688864	0.184593	275.795
423.5000	-0.266713	-0.000663733	0.182524	275.408
423.0000	-0.177881	-0.000640701	0.180342	275.075
422.5000	-0.114567	-0.000630426	0.178037	274.789
422.0000	-0.0153634	-0.000608142	0.175352	274.499
421.5000	0.176904	-0.000594596	0.172813	274.23
421.0000	0.260632	-0.000571518	0.170617	273.988
420.5000	0.236494	-0.000555484	0.168417	273.749
420.0000	0.298946	-0.000534741	0.166291	273.501
419.5000	0.308494	-0.000515741	0.164056	273.226
419.0000	0.47085	-0.000496663	0.161976	272.976
418.5000	0.615747	-0.000479489	0.159896	272.76
418.0000	0.624694	-0.000458299	0.158027	272.542
417.5000	0.568193	-0.000444463	0.156032	272.331
417.0000	0.562792	-0.000425381	0.154403	272.138
416.5000	0.716535	-0.000412225	0.15322	272.021
416.0000	0.678916	-0.000407855	0.151628	271.93
415.5000	0.799183	-0.00038098	0.149701	271.825
415.0000	0.676042	-0.000373143	0.147773	271.683
414.5000	0.72476	-0.000373607	0.146081	271.489
414.0000	0.763351	-0.000353806	0.145004	271.307
413.5000	0.723964	-0.000342555	0.143976	271.112
413.0000	0.650711	-0.000332221	0.142984	270.933
412.5000	0.833075	-0.000314896	0.141968	270.776
412.0000	0.809144	-0.000298259	0.141009	270.634
411.5000	0.978787	-0.000289716	0.139845	270.496
411.0000	0.988325	-0.00027714	0.138902	270.382
410.5000	1.02302	-0.000267437	0.138122	270.275
410.0000	0.929518	-0.000262001	0.137487	270.18
409.5000	0.994119	-0.000253416	0.136873	270.099
409.0000	1.00376	-0.000240325	0.136248	270.036
408.5000	1.09828	-0.000227388	0.135382	269.979
408.0000	0.906927	-0.000222716	0.13449	269.933
407.5000	0.98187	-0.000203653	0.133557	269.878
407.0000	0.874275	-0.00021619	0.13289	269.819
406.5000	0.833973	-0.000211261	0.132207	269.745
406.0000	0.835989	-0.000191214	0.131444	269.659
405.5000	0.875864	-0.000176382	0.130537	269.567
405.0000	0.857155	-0.000164831	0.12979	269.466
404.5000	0.880919	-0.000143753	0.129135	269.353
404.0000	0.735247	-0.000142597	0.128805	269.215
403.5000	0.644861	-0.000134481	0.128321	269.039
403.0000	0.492888	-0.000134638	0.128369	268.866
402.5000	0.476788	-0.00012923	0.127968	268.67
402.0000	0.402347	-0.000119201	0.127952	268.479
401.5000	0.511337	-0.000113202	0.128309	268.29
401.0000	0.433761	-0.000104795	0.128383	268.116
400.5000	0.375976	-9.91077E-005	0.128532	267.961
400.0000	0.393345	-9.88249E-005	0.128485	267.82
399.5000	0.484924	-0.000111564	0.129037	267.697
399.0000	0.450953	-9.96724E-005	0.129536	267.603
398.5000	0.453293	-9.94002E-005	0.129815	267.522
398.0000	0.510319	-9.39645E-005	0.130149	267.471
397.5000	0.425597	-9.70198E-005	0.130425	267.441
397.0000	0.444841	-9.60722E-005	0.131016	267.434
396.5000	0.452414	-9.49363E-005	0.13132	267.451
396.0000	0.374489	-8.85177E-005	0.131576	267.481
395.5000	0.48869	-9.83675E-005	0.131622	267.549
395.0000	0.457313	-9.36823E-005	0.131962	267.659
394.5000	0.518858	-9.54901E-005	0.13241	267.792
394.0000	0.473087	-9.05164E-005	0.132799	267.943
393.5000	0.416191	-9.00094E-005	0.132841	268.106
393.0000	0.26531	-0.000102281	0.132688	268.278
392.5000	0.475367	-9.1671E-005	0.132693	268.44
392.0000	0.53393	-9.91928E-005	0.133033	268.595
391.5000	0.476973	-8.6614E-005	0.133734	268.748
391.0000	0.418995	-9.43724E-005	0.134256	268.886
390.5000	0.341279	-8.86516E-005	0.134534	269.015
390.0000	0.283497	-8.15555E-005	0.134712	269.125
389.5000	0.373797	-5.7464E-005	0.135261	269.228
389.0000	0.407495	-6.69843E-005	0.13607	269.333
388.5000	0.424125	-6.46111E-005	0.136554	269.426
388.0000	0.426705	-6.89413E-005	0.136997	269.521
387.5000	0.485995	-5.70644E-005	0.137685	269.607
387.0000	0.296316	-4.91898E-005	0.138743	269.681
386.5000	0.38521	-5.56783E-005	0.139447	269.734
386.0000	0.345809	-6.54078E-005	0.140361	269.79
385.5000	0.311567	-7.59185E-005	0.141264	269.84
385.0000	0.284768	-7.69232E-005	0.142313	269.897
384.5000	0.151693	-8.04143E-005	0.143383	269.954
384.0000	0.0306359	-7.92186E-005	0.144602	270.012
383.5000	0.127506	-6.39003E-005	0.145446	270.061
383.0000	0.202255	-6.30589E-005	0.146161	270.111
382.5000	0.290667	-6.03254E-005	0.146814	270.148
382.0000	0.393753	-5.235E-005	0.14808	270.2
381.5000	0.354398	-5.45316E-005	0.149595	270.264
381.0000	0.240677	-5.57611E-005	0.150818	270.331
380.5000	0.0895161	-6.05296E-005	0.151728	270.386
380.0000	0.114272	-6.02671E-005	0.153043	270.455
379.5000	0.145865	-6.00159E-005	0.154256	270.513
379.0000	0.179693	-7.21747E-005	0.155186	270.577
378.5000	0.150908	-7.83954E-005	0.155797	270.642
378.0000	0.284705	-7.43373E-005	0.15641	270.701
377.5000	0.449138	-8.25445E-005	0.157202	270.761
377.0000	0.632933	-7.4188E-005	0.15786	270.811
376.5000	0.811898	-6.32565E-005	0.158611	270.846
376.0000	0.845624	-6.4241E-005	0.159369	270.875
375.5000	0.956425	-6.32542E-005	0.159982	270.908
375.0000	0.977846	-7.80442E-005	0.160532	270.926
374.5000	0.78394	-7.97741E-005	0.161052	270.935
374.0000	0.838091	-7.61435E-005	0.161671	270.949
373.5000	0.83708	-9.05026E-005	0.161934	270.94
373.0000	0.88799	-0.000109319	0.162266	270.957
372.5000	0.998837	-0.000111297	0.162469	270.955
372.0000	1.12596	-0.000107619	0.162849	270.963
371.5000	1.06797	-0.000115999	0.163113	270.969
371.0000	0.998249	-0.000127548	0.163689	270.988
370.5000	1.0291	-0.000115801	0.16439	271.011
370.0000	1.06015	-0.000116505	0.164948	271.037
369.5000	0.958614	-0.000120307	0.165522	271.07
369.0000	0.938604	-0.000115461	0.166153	271.11
368.5000	0.74729	-0.000113569	0.166874	271.153
368.0000	0.736815	-0.000123617	0.167467	271.208
367.5000	0.699808	-0.000126546	0.168285	271.279
367.0000	0.71626	-0.000138651	0.169247	271.346
366.5000	0.780121	-0.000138714	0.169955	271.42
366.0000	0.6851	-0.000153407	0.170828	271.519
365.5000	0.589892	-0.000155018	0.171516	271.604
365.0000	0.594792	-0.000151888	0.172089	271.69
364.5000	0.564046	-0.000147238	0.172844	271.772
364.0000	0.574222	-0.000150411	0.173485	271.861
363.5000	0.589799	-0.000151578	0.174461	271.952
363.0000	0.666395	-0.000165106	0.175412	272.045
362.5000	0.6102	-0.000166334	0.176191	272.136
362.0000	0.797678	-0.000171223	0.176901	272.223
361.5000	0.815719	-0.000178336	0.177791	272.31
361.0000	0.681504	-0.000177912	0.178618	272.394
360.5000	0.618309	-0.000184618	0.179285	272.484
360.0000	0.734207	-0.000188445	0.179891	272.559
359.5000	0.815321	-0.000193721	0.180502	272.642
359.0000	0.924166	-0.000213929	0.180729	272.712
358.5000	0.972223	-0.000210079	0.180862	272.784
358.0000	0.906814	-0.000213602	0.181022	272.854
357.5000	1.12842	-0.000196722	0.181195	272.928
357.0000	1.09483	-0.000219496	0.181704	273.008
356.5000	1.25196	-0.000224692	0.182536	273.089
356.0000	1.11667	-0.000241993	0.182857	273.156
355.5000	1.18972	-0.000234691	0.183063	273.216
355.0000	1.47621	-0.000234327	0.183227	273.281
354.5000	1.46666	-0.000228458	0.183463	273.356
354.0000	1.59771	-0.000250173	0.183822	273.431
353.5000	1.65725	-0.000250791	0.184192	273.506
353.0000	1.67583	-0.00026771	0.184503	273.584
352.5000	1.82811	-0.000284758	0.184997	273.676
352.0000	1.99914	-0.000286706	0.185507	273.768
351.5000	1.99712	-0.000294189	0.185969	273.852
351.0000	2.04102	-0.000312585	0.186803	273.94
350.5000	1.99869	-0.00032183	0.187654	274.02
350.0000	2.00958	-0.000332599	0.188752	274.117
349.5000	1.94128	-0.000347712	0.189828	274.205
349.0000	1.82601	-0.000366799	0.190923	274.288
348.5000	1.92311	-0.000367137	0.192084	274.368
348.0000	1.89107	-0.000376187	0.192877	274.439
347.5000	1.91907	-0.000385287	0.194122	274.525
347.0000	1.88314	-0.000420094	0.195573	274.626
346.5000	1.71916	-0.000428574	0.19664	274.71
346.0000	1.75284	-0.000438955	0.197518	274.784
345.5000	1.71816	-0.000458051	0.198627	274.864
345.0000	1.56649	-0.000479702	0.199838	274.95
344.5000	1.75311	-0.000477671	0.201028	275.032
344.0000	1.72312	-0.000490486	0.202279	275.104
343.5000	1.55087	-0.000513482	0.203316	275.181
343.0000	1.55105	-0.000536692	0.204234	275.256
342.5000	1.58174	-0.000534703	0.20499	275.33
342.0000	1.46983	-0.000544893	0.205816	275.413
341.5000	1.46837	-0.000556761	0.206731	275.495
341.0000	1.78573	-0.000575846	0.207855	275.578
340.5000	1.98199	-0.000585033	0.208692	275.659
340.0000	1.95184	-0.000598167	0.209602	275.75
339.5000	2.20228	-0.000622885	0.210264	275.842
339.0000	2.32096	-0.000634782	0.211255	275.939
338.5000	2.41191	-0.000650605	0.212228	276.027
338.0000	2.49548	-0.000660932	0.213326	276.132
337.5000	2.55532	-0.000678337	0.214309	276.234
337.0000	2.68669	-0.000691256	0.215127	276.331
336.5000	2.7853	-0.000701707	0.216229	276.434
336.0000	3.05425	-0.000718351	0.217178	276.535
335.5000	3.25042	-0.00072656	0.218105	276.634
335.0000	3.29918	-0.000749756	0.219038	276.732
334.5000	3.34978	-0.000777908	0.220078	276.85
334.0000	3.69251	-0.000805151	0.221279	276.97
333.5000	3.73049	-0.000825113	0.222888	277.096
333.0000	3.64512	-0.000846088	0.224036	277.212
332.5000	3.59469	-0.000879007	0.224926	277.331
332.0000	3.44536	-0.000892798	0.225946	277.455
331.5000	3.59764	-0.00092041	0.227113	277.572
331.0000	3.57603	-0.00093642	0.22845	277.701
330.5000	3.71728	-0.000955672	0.229499	277.825
330.0000	3.60999	-0.000982222	0.2306	277.945
329.5000	3.60529	-0.00101216	0.231737	278.068
329.0000	3.55887	-0.00105525	0.23295	278.209
328.5000	3.57816	-0.00107441	0.234194	278.341
328.0000	3.70098	-0.00111098	0.235048	278.447
327.5000	3.52195	-0.00114727	0.236235	278.566
327.0000	3.47375	-0.00118201	0.237598	278.676
326.5000	3.69273	-0.00119944	0.239261	278.812
326.0000	3.59806	-0.00121882	0.241042	278.955
325.5000	3.43108	-0.00125168	0.242719	279.109
325.0000	3.39309	-0.00128646	0.243925	279.251
324.5000	3.57473	-0.00132484	0.245391	279.404
324.0000	3.65568	-0.00136261	0.247211	279.571
323.5000	3.72008	-0.00139883	0.249092	279.734
323.0000	3.70169	-0.00143605	0.250755	279.901
322.5000	3.6993	-0.00147125	0.252433	280.074
322.0000	3.59359	-0.0015057	0.254034	280.252
321.5000	3.6438	-0.00154081	0.255854	280.428
321.0000	3.63842	-0.0015812	0.257719	280.606
320.5000	3.75334	-0.00162075	0.259603	280.78
320.0000	3.80623	-0.00165167	0.261388	280.958
319.5000	3.70704	-0.0016896	0.263233	281.142
319.0000	3.68877	-0.00171087	0.265009	281.344
318.5000	3.48229	-0.00175832	0.26681	281.558
318.0000	3.38808	-0.00180254	0.268396	281.747
317.5000	3.6405	-0.00182719	0.269933	281.912
317.0000	3.64772	-0.00186139	0.271825	282.083
316.5000	3.68286	-0.00188363	0.27389	282.256
316.0000	3.66434	-0.00191005	0.276074	282.442
315.5000	3.71284	-0.00193803	0.277895	282.629
315.0000	3.84844	-0.00196233	0.279831	282.838
314.5000	3.86615	-0.00198167	0.281745	283.045
314.0000	3.97555	-0.00200125	0.28372	283.248
313.5000	4.03954	-0.00202832	0.285895	283.466
313.0000	4.24643	-0.00203878	0.288247	283.71
312.5000	4.31936	-0.00204846	0.290581	283.964
312.0000	4.28416	-0.00206391	0.292923	284.201
311.5000	4.27024	-0.002089	0.295333	284.456
311.0000	4.28096	-0.00210048	0.298043	284.717
310.5000	4.47338	-0.0021325	0.300629	285.006
310.0000	4.49577	-0.00212829	0.303309	285.283
309.5000	4.53861	-0.00215104	0.30616	285.574
309.0000	4.63384	-0.00217406	0.309471	285.914
308.5000	4.70671	-0.00221306	0.312481	286.256
308.0000	4.79382	-0.00222342	0.31542	286.586
307.5000	4.88109	-0.00224666	0.318854	286.956
307.0000	5.01587	-0.00226596	0.322394	287.316
306.5000	4.91247	-0.0023021	0.326237	287.706
306.0000	5.01035	-0.00234993	0.330272	288.101
305.5000	4.98457	-0.00237856	0.334479	288.54
305.0000	4.92434	-0.0024071	0.33872	288.972
304.5000	4.92255	-0.0024236	0.343621	289.451
304.0000	4.90812	-0.00245277	0.348743	289.945
303.5000	4.91152	-0.00247743	0.353958	290.449
303.0000	4.92664	-0.00250744	0.359657	291.021
302.5000	5.07651	-0.00254737	0.365531	291.617
302.0000	5.0893	-0.00258259	0.371743	292.227
301.5000	5.02242	-0.00262312	0.378286	292.865
301.0000	5.12544	-0.00264091	0.384884	293.53
300.5000	5.18871	-0.0026649	0.390761	294.127
300.0000	5.28475	-0.00268688	0.398138	294.844
299.5000	5.3093	-0.00270549	0.405132	295.535
299.0000	5.27076	-0.00272583	0.412078	296.238
298.5000	5.30604	-0.00275606	0.419264	296.976
298.0000	5.39538	-0.0027584	0.426241	297.685
297.5000	5.51661	-0.00276185	0.433696	298.434
297.0000	5.53393	-0.00276502	0.440695	299.096
296.5000	5.63328	-0.00275595	0.447377	299.748
296.0000	5.84622	-0.00276971	0.453989	300.398
295.5000	5.86635	-0.00274848	0.460739	301.036
295.0000	6.08864	-0.0027301	0.467035	301.613
294.5000	6.04275	-0.00270338	0.473279	302.198
294.0000	5.95118	-0.00267707	0.479647	302.839
293.5000	6.01799	-0.00264008	0.484941	303.389
293.0000	6.15755	-0.00258774	0.49053	303.962
292.5000	6.12699	-0.00256041	0.496072	304.552
292.0000	6.03548	-0.00249152	0.501154	305.11
291.5000	5.96679	-0.00243159	0.506315	305.663
291.0000	6.02186	-0.00239256	0.511484	306.214
290.5000	5.88358	-0.00232523	0.51695	306.79
290.0000	5.83041	-0.00225933	0.522424	307.346
289.5000	5.66789	-0.00218374	0.527162	307.861
289.0000	5.43851	-0.00211465	0.531747	308.367
288.5000	5.48813	-0.0020619	0.536933	308.946
288.0000	5.26832	-0.00200085	0.541889	309.506
287.5000	5.18355	-0.00192493	0.546963	310.09
287.0000	4.93098	-0.0018751	0.5521	310.722
286.5000	4.69383	-0.00179684	0.556959	311.348
286.0000	4.75163	-0.00172815	0.561971	311.953
285.5000	4.69057	-0.00164824	0.567365	312.545
285.0000	4.40722	-0.00158246	0.573145	313.182
284.5000	4.26076	-0.00151102	0.578285	313.757
284.0000	4.06215	-0.00145645	0.58381	314.371
283.5000	3.77471	-0.00140378	0.589696	315.009
283.0000	3.49781	-0.00134318	0.595258	315.62
282.5000	3.54141	-0.00126024	0.601323	316.28
282.0000	3.38691	-0.00119814	0.607262	316.962
281.5000	3.1268	-0.00112176	0.612908	317.619
281.0000	2.94144	-0.00104728	0.618954	318.297
280.5000	2.73296	-0.00097436	0.625366	319.037
280.0000	2.53502	-0.000886316	0.631972	319.796
279.5000	2.3334	-0.000797957	0.638693	320.579
279.0000	1.8963	-0.000734223	0.645234	321.353
278.5000	1.59438	-0.000655196	0.65256	322.204
278.0000	1.32181	-0.000589527	0.6611	323.141
277.5000	1.16736	-0.000521118	0.668997	324.013
277.0000	1.16881	-0.000442643	0.677339	324.964
276.5000	1.32556	-0.000347979	0.685841	325.948
276.0000	1.1715	-0.000275301	0.693948	326.879
275.5000	1.38646	-0.000169832	0.703483	327.944
275.0000	1.44715	-8.28211E-005	0.713384	329.057
274.5000	1.35801	1.41669E-005	0.723561	330.224
274.0000	1.06855	8.40623E-005	0.734496	331.509
273.5000	1.04731	0.000177827	0.744985	332.709
273.0000	0.834834	0.000224182	0.756634	334.037
272.5000	0.627269	0.000304114	0.768832	335.438
272.0000	0.429438	0.000374161	0.781413	336.903
271.5000	0.408418	0.000439566	0.795333	338.527
271.0000	0.420639	0.000498582	0.809447	340.141
270.5000	0.330314	0.000562673	0.824229	341.818
270.0000	0.458207	0.000642365	0.839289	343.57
269.5000	0.0514286	0.000720238	0.854654	345.4
269.0000	-0.087378	0.000818023	0.87007	347.226
268.5000	-0.456327	0.000877902	0.88708	349.233
268.0000	-0.707344	0.000925973	0.905056	351.348
267.5000	-0.716982	0.0010038	0.923773	353.566
267.0000	-0.866246	0.0010354	0.943936	356.001
266.5000	-0.773878	0.00107038	0.964725	358.546
266.0000	-0.821761	0.00109414	0.984341	360.907
265.5000	-0.582832	0.00112999	1.00587	363.479
265.0000	-0.692076	0.00119774	1.02879	366.278
264.5000	-0.52159	0.00119359	1.05076	369.005
264.0000	-0.0323309	0.00122705	1.07298	371.781
263.5000	0.402953	0.00127922	1.09682	374.743
263.0000	0.62729	0.00133419	1.1185	377.459
262.5000	0.516262	0.0013784	1.14234	380.508
262.0000	0.858759	0.00143735	1.16501	383.471
261.5000	1.38855	0.00144708	1.18801	386.462
261.0000	2.30993	0.00143603	1.21058	389.36
260.5000	2.74547	0.0014213	1.23443	392.461
260.0000	3.58653	0.001451	1.25839	395.615
259.5000	3.894	0.00144508	1.28272	398.853
259.0000	4.17094	0.00141541	1.30731	402.175
258.5000	4.63008	0.0014001	1.33288	405.602
258.0000	5.88222	0.00137407	1.35917	409.142
257.5000	6.86897	0.00136691	1.38486	412.617
257.0000	7.9533	0.00137214	1.41281	416.421
256.5000	8.72746	0.0013498	1.44023	420.164
256.0000	9.93927	0.00132213	1.47026	424.262
255.5000	10.7758	0.0013126	1.50164	428.55
255.0000	11.6439	0.00128055	1.53425	433.046
254.5000	13.1791	0.00124264	1.56664	437.541
254.0000	14.2426	0.00116887	1.60029	442.232
253.5000	15.3219	0.00104098	1.63935	447.649
253.0000	16.4853	0.00102215	1.67581	452.774
252.5000	17.083	0.000983784	1.73153	460.74
252.0000	17.6329	0.000878667	1.77974	467.686
251.5000	17.7302	0.000918316	1.82339	474.014
251.0000	18.7143	0.000846858	1.86889	480.621
250.5000	19.2918	0.000796014	1.91549	487.489
250.0000	20.8152	0.000758622	1.96098	494.284
249.5000	20.7136	0.000679898	2.00782	501.359
249.0000	21.2669	0.000587797	2.0588	509.134
248.5000	21.6118	0.000476519	2.10911	516.859
248.0000	22.9194	0.000347645	2.1637	525.351
247.5000	24.0411	0.000112855	2.21713	533.793
247.0000	23.8819	4.80767E-005	2.27504	543.076
246.5000	23.6626	-9.3192E-005	2.33506	552.8
246.0000	24.0454	-0.000225489	2.39719	562.979
245.5000	24.8551	-0.000310718	2.46402	574.167
245.0000	24.3539	-0.0004872	2.53333	585.954
244.5000	21.6596	-0.000540031	2.60521	598.371
244.0000	20.6565	-0.000739327	2.67963	611.481
243.5000	21.2317	-0.000758458	2.7525	624.578
243.0000	23.6475	-0.000882556	2.82727	638.305
242.5000	23.6093	-0.000907837	2.91168	654.131
242.0000	23.2517	-0.000838057	2.98604	668.364
241.5000	21.6154	-0.000753884	3.06966	684.698
241.0000	20.1994	-0.00106778	3.14603	699.938
240.5000	19.1057	-0.00105493	3.23034	717.215
240.0000	21.3083	-0.000782028	3.30651	733.168
239.5000	18.3969	-0.000502532	3.39368	751.853
239.0000	14.8401	-0.00033744	3.46772	768.06
238.5000	16.1339	-7.12384E-005	3.54341	785.021
238.0000	15.0706	-0.000151286	3.61943	802.545
237.5000	11.9323	-9.20321E-005	3.68474	818.001
237.0000	9.47907	0.000153024	3.74978	833.764
236.5000	7.1513	0.000292955	3.81027	848.799
236.0000	2.70337	-2.49736E-005	3.86332	862.308
235.5000	3.43316	0.000111182	3.91878	876.892
235.0000	4.28764	0.000264222	3.95285	886.116
234.5000	3.86835	0.000382066	3.98609	895.317
234.0000	2.63966	0.000632449	4.01751	904.256
233.5000	2.28301	0.00101235	4.04872	913.378
233.0000	2.26155	0.000864938	4.07632	921.823
232.5000	-0.283282	0.00140146	4.09772	928.828
232.0000	0.604917	0.00163835	4.11693	935.716
231.5000	-3.55487	0.00107951	4.12856	940.452
231.0000	-5.81711	0.000849722	4.13754	944.804
230.5000	-0.839767	0.000820013	4.14257	948.305
230.0000	-1.7759	0.000789266	4.14393	950.913
229.5000	-2.29046	0.000746251	4.1429	953.061
229.0000	-0.759948	0.000986997	4.13953	954.693
228.5000	-1.40053	0.000972199	4.13455	955.911
228.0000	0.107601	0.000918852	4.12839	956.744
227.5000	4.13092	0.00127339	4.12044	957.402
227.0000	3.92594	0.00133203	4.11158	957.866
226.5000	3.09686	0.0012609	4.10183	958.262
226.0000	-0.24022	0.00119462	4.09217	958.49
225.5000	-2.36201	0.0007932	4.08161	958.7
225.0000	-1.8986	0.000675028	4.0701	958.824
224.5000	0.750138	0.000773638	4.05835	958.965
224.0000	-2.47517	0.000506642	4.04657	959.085
223.5000	-1.75238	0.000702943	4.03489	959.159
223.0000	0.34864	0.00111861	4.02321	959.195
222.5000	-2.18267	0.00100666	4.00867	959.217
222.0000	-4.55916	0.00103902	3.99543	959.274
221.5000	-2.45874	0.00121301	3.98154	959.345
221.0000	-3.49179	0.00104503	3.96962	959.403
220.5000	-1.04999	0.000969922	3.95754	959.447
220.0000	0.0207807	0.00114181	3.94476	959.494

##### Extended Information
[Comments]
Sample name	JS187+JS190_5E-5_H2O_65-35_100EQDT+72H
Comment
User
Division
Company	Labo systeme complexes hors equilibre

[Detailed Information]
Creation date	1/26/2024 10:55 AM

Data array type	Linear data array * 4
Horizontal axis	Wavelength [nm]
Vertical axis(1)	CD [mdeg]
Vertical axis(2)	LD [dOD]
Vertical axis(3)	Abs
Vertical axis(4)	HT [V]
Start	700 nm
End	220 nm
Data interval	0.5 nm
Data points	961     

[Measurement Information]
Instrument name	CD Jasco
Model name	J-1500
Serial No.	A005261638

Detector	PM-539
Detector S/N	A0052PM539
  Lock-in amp.	X mode
  HT volt	Auto

Detector	EXPML-535
Detector S/N	A0001
  Lock-in amp.	X mode
  HT volt	Auto

Measurement date	1/26/2024 10:55 AM

Overload detect	1
Photometric mode	CD, LD, Abs, HT
Measure range	700 - 220 nm
Data pitch	0.5 nm
CD scale	200 mdeg/1.0 dOD
FL scale	200 mdeg/1.0 dOD
D.I.T.	1 sec
Bandwidth	1.00 nm
Start mode	Immediately
Scanning speed	500 nm/min
Baseline correction	Baseline
Shutter control	Auto


