TITLE	JS187+JS190_5E-5_H2O_54-46_100EQDT+72H
DATA TYPE	
ORIGIN	JASCO
OWNER	
DATE	24/01/26
TIME	09:43:02
SPECTROMETER/DATA SYSTEM	
LOCALE	1033
RESOLUTION	
DELTAX	-0.5
XUNITS	NANOMETERS
YUNITS	CD [mdeg]
Y2UNITS	LD [dOD]
Y3UNITS	ABSORBANCE
Y4UNITS	HT [V]
FIRSTX	  700.0000
LASTX	  220.0000
NPOINTS	     961
FIRSTY	     1.36045
MAXY	    10.38669
MINY	   -10.95711
XYDATA
700.0000	1.36045	-0.000689414	-0.011298	303.266
699.5000	1.26154	-0.000708807	-0.0120328	302.992
699.0000	0.948288	-0.000724048	-0.012591	302.689
698.5000	1.14268	-0.000712516	-0.012658	302.349
698.0000	1.36881	-0.000701923	-0.0131331	301.97
697.5000	1.30643	-0.000702967	-0.0140982	301.57
697.0000	1.08222	-0.000697016	-0.0153094	301.129
696.5000	1.29068	-0.000675965	-0.0158927	300.665
696.0000	1.22358	-0.000664461	-0.0158831	300.14
695.5000	1.24182	-0.000673373	-0.0159157	299.612
695.0000	1.27805	-0.000696434	-0.0155783	299.121
694.5000	1.06854	-0.000706901	-0.0154449	298.632
694.0000	1.07148	-0.000710598	-0.0143273	298.158
693.5000	1.0911	-0.000711675	-0.0129244	297.716
693.0000	0.989715	-0.000712543	-0.010921	297.329
692.5000	0.870683	-0.000718079	-0.00891552	296.967
692.0000	0.990247	-0.000692066	-0.00688227	296.646
691.5000	1.02367	-0.000691496	-0.00439782	296.378
691.0000	1.15218	-0.000690727	-0.00210713	296.111
690.5000	1.09194	-0.00068066	-0.000408942	295.892
690.0000	1.01741	-0.000683814	0.000782946	295.674
689.5000	0.899203	-0.000679616	0.00205849	295.486
689.0000	0.812982	-0.000682797	0.00365404	295.312
688.5000	0.606522	-0.000700406	0.00500465	295.195
688.0000	0.638071	-0.000689083	0.00706171	295.17
687.5000	0.630071	-0.000678075	0.00965212	295.244
687.0000	0.440612	-0.000657837	0.0120911	295.382
686.5000	0.373168	-0.000658336	0.0142765	295.585
686.0000	0.467588	-0.00064869	0.0153779	295.819
685.5000	0.484884	-0.000639749	0.0156616	296.08
685.0000	0.430649	-0.000645562	0.0155663	296.34
684.5000	0.211728	-0.000647854	0.0148095	296.581
684.0000	0.37232	-0.00063967	0.013587	296.816
683.5000	0.275353	-0.000639978	0.0127353	297.048
683.0000	0.187998	-0.000637732	0.0117263	297.278
682.5000	-0.096254	-0.000650407	0.0112337	297.512
682.0000	0.391951	-0.000657394	0.0105665	297.767
681.5000	0.382992	-0.000655926	0.0104793	298.029
681.0000	0.382396	-0.000657715	0.0105567	298.319
680.5000	0.571279	-0.000642916	0.0108348	298.605
680.0000	0.593789	-0.000663057	0.00996578	298.851
679.5000	0.545013	-0.000688017	0.00864662	299.049
679.0000	0.585953	-0.000686207	0.00611809	299.178
678.5000	0.562671	-0.000686594	0.00444199	299.253
678.0000	0.775309	-0.000665263	0.00272594	299.285
677.5000	1.09485	-0.000666003	0.00161192	299.283
677.0000	0.818697	-0.000658025	0.00100704	299.257
676.5000	1.13548	-0.000663777	0.00114456	299.231
676.0000	1.03979	-0.000667235	0.00142372	299.214
675.5000	1.06005	-0.000674895	0.00161677	299.189
675.0000	0.948282	-0.000684545	0.00201344	299.169
674.5000	0.866528	-0.000686454	0.00280737	299.156
674.0000	0.540162	-0.000664706	0.0036986	299.155
673.5000	0.601343	-0.000663646	0.00464213	299.158
673.0000	0.493921	-0.000652012	0.00477946	299.18
672.5000	0.454485	-0.000664468	0.00492926	299.214
672.0000	0.416787	-0.000642765	0.00535404	299.25
671.5000	0.511599	-0.000617989	0.00620852	299.285
671.0000	0.432159	-0.000625112	0.00713272	299.328
670.5000	0.566654	-0.000612018	0.00831019	299.379
670.0000	0.48593	-0.00059744	0.00928926	299.433
669.5000	0.445514	-0.000606104	0.00967824	299.485
669.0000	0.689908	-0.000601353	0.0102569	299.553
668.5000	0.876881	-0.000620555	0.0107762	299.619
668.0000	0.832292	-0.000629764	0.0111618	299.705
667.5000	1.03378	-0.000608236	0.0113802	299.792
667.0000	1.03779	-0.000586507	0.0114295	299.889
666.5000	1.11644	-0.000582018	0.0113783	299.977
666.0000	1.29091	-0.000568755	0.0106482	300.075
665.5000	1.11749	-0.000584021	0.0105287	300.192
665.0000	1.08381	-0.000604939	0.0111756	300.305
664.5000	1.32261	-0.000599876	0.0119843	300.405
664.0000	1.48153	-0.000589504	0.0121322	300.507
663.5000	1.28505	-0.000610609	0.0112438	300.603
663.0000	1.43613	-0.000625684	0.0109556	300.677
662.5000	1.43858	-0.000623188	0.0106278	300.751
662.0000	1.3303	-0.000635152	0.0101338	300.805
661.5000	1.11013	-0.00063532	0.0101771	300.848
661.0000	1.01456	-0.000639877	0.00990032	300.886
660.5000	1.02261	-0.000619232	0.00947107	300.918
660.0000	1.37734	-0.000631709	0.00925328	300.936
659.5000	1.00424	-0.000628021	0.00853615	300.938
659.0000	1.15871	-0.000642254	0.00801523	300.922
658.5000	0.936926	-0.000639095	0.00763303	300.886
658.0000	0.685562	-0.000641377	0.00768057	300.84
657.5000	1.08847	-0.000643719	0.00713483	300.772
657.0000	1.13909	-0.000636413	0.00742264	300.679
656.5000	1.31151	-0.000639398	0.00655274	300.561
656.0000	1.29304	-0.000635682	0.00578294	300.428
655.5000	1.47708	-0.000645396	0.0063286	300.268
655.0000	1.18967	-0.000632611	0.00615301	300.093
654.5000	1.10232	-0.000632231	0.00540785	299.912
654.0000	1.04041	-0.000631186	0.00549156	299.732
653.5000	1.09225	-0.000612586	0.00610321	299.544
653.0000	1.08148	-0.000608561	0.00708363	299.371
652.5000	1.23253	-0.00058833	0.00798395	299.218
652.0000	1.43975	-0.000587931	0.00905647	299.09
651.5000	1.30497	-0.000567953	0.0106096	298.989
651.0000	1.32837	-0.000582195	0.0126113	298.914
650.5000	1.49322	-0.000563452	0.0139438	298.873
650.0000	1.76108	-0.000568199	0.0158306	298.869
649.5000	1.70109	-0.000554713	0.0170032	298.872
649.0000	1.74103	-0.000538221	0.018364	298.893
648.5000	1.71093	-0.000537353	0.0189527	298.95
648.0000	1.78296	-0.000527624	0.0199173	299.034
647.5000	1.56228	-0.000511572	0.0208262	299.137
647.0000	1.47546	-0.000516941	0.0212651	299.269
646.5000	1.51021	-0.000524963	0.0217609	299.427
646.0000	1.74901	-0.000515522	0.0230729	299.58
645.5000	1.8373	-0.000514175	0.0237325	299.745
645.0000	1.72573	-0.000523504	0.0231635	299.888
644.5000	1.57381	-0.00051998	0.0228915	300.012
644.0000	1.61972	-0.00050734	0.0228181	300.118
643.5000	1.4248	-0.000509437	0.0223103	300.195
643.0000	1.55623	-0.000506521	0.0218289	300.246
642.5000	1.75469	-0.000489333	0.021414	300.274
642.0000	1.75769	-0.00047014	0.0212066	300.286
641.5000	1.90453	-0.000475831	0.0207561	300.267
641.0000	1.80011	-0.000482582	0.0207186	300.24
640.5000	1.58151	-0.000469505	0.0210769	300.2
640.0000	1.51059	-0.000469971	0.0215858	300.141
639.5000	1.32685	-0.000473904	0.0224047	300.069
639.0000	1.62397	-0.000460519	0.0230903	300
638.5000	1.52941	-0.000478587	0.0241511	299.914
638.0000	1.48022	-0.000476093	0.0246826	299.831
637.5000	1.53125	-0.000467151	0.0248762	299.733
637.0000	1.65187	-0.000454469	0.0260682	299.646
636.5000	1.68036	-0.000459013	0.0270124	299.564
636.0000	1.55061	-0.000490021	0.0273335	299.49
635.5000	1.88514	-0.000477946	0.027813	299.423
635.0000	1.78489	-0.000480419	0.0287073	299.359
634.5000	1.45166	-0.000493679	0.029544	299.303
634.0000	1.22335	-0.000498905	0.0301999	299.242
633.5000	1.14953	-0.000508637	0.0305342	299.189
633.0000	1.0975	-0.000508229	0.031511	299.15
632.5000	1.20041	-0.000520678	0.0317914	299.107
632.0000	1.59145	-0.000520257	0.0320635	299.062
631.5000	1.65997	-0.00051558	0.032709	299.026
631.0000	1.85397	-0.000507907	0.03327	298.987
630.5000	1.90756	-0.000487455	0.0338372	298.949
630.0000	1.81512	-0.000476497	0.0344811	298.911
629.5000	1.85977	-0.000475574	0.0353578	298.882
629.0000	1.86214	-0.00046945	0.0359293	298.847
628.5000	1.94607	-0.000482666	0.0362645	298.808
628.0000	2.01163	-0.000477219	0.0368582	298.768
627.5000	1.94286	-0.00046987	0.0376941	298.718
627.0000	1.69659	-0.000481706	0.0380132	298.668
626.5000	1.73597	-0.000482375	0.0380072	298.616
626.0000	1.62521	-0.000484707	0.0380651	298.563
625.5000	1.67247	-0.000478008	0.0387804	298.513
625.0000	1.68554	-0.000485265	0.0396556	298.471
624.5000	1.62036	-0.000480102	0.0405772	298.437
624.0000	1.63953	-0.000459823	0.0415949	298.432
623.5000	1.39621	-0.000457972	0.0425657	298.427
623.0000	1.10844	-0.000468294	0.043448	298.429
622.5000	1.03433	-0.000461928	0.0444669	298.442
622.0000	0.92174	-0.000463652	0.0452764	298.471
621.5000	1.11488	-0.000468407	0.0461247	298.51
621.0000	1.14939	-0.000473466	0.0470387	298.56
620.5000	1.06154	-0.000483985	0.0475811	298.612
620.0000	1.0537	-0.000482719	0.0480759	298.681
619.5000	1.07705	-0.000476671	0.0489385	298.776
619.0000	1.03071	-0.000506054	0.0502541	298.887
618.5000	1.04655	-0.000493132	0.052088	299.023
618.0000	1.11546	-0.000497913	0.0539617	299.164
617.5000	1.33737	-0.000489214	0.0549598	299.325
617.0000	1.12213	-0.000482623	0.0557628	299.499
616.5000	1.37969	-0.000490661	0.0564971	299.663
616.0000	1.45924	-0.000506939	0.0575939	299.817
615.5000	1.56185	-0.00051576	0.0582802	299.971
615.0000	1.88573	-0.000513142	0.0588339	300.121
614.5000	1.86939	-0.000519033	0.0592297	300.273
614.0000	1.74862	-0.000524904	0.059646	300.423
613.5000	1.84899	-0.000533214	0.0602338	300.567
613.0000	1.82237	-0.000515052	0.0607059	300.717
612.5000	2.0055	-0.000515718	0.0613588	300.874
612.0000	2.22593	-0.000519251	0.0620895	301.028
611.5000	2.15668	-0.000516657	0.0631573	301.183
611.0000	2.27204	-0.000509761	0.0638296	301.35
610.5000	2.63811	-0.00050381	0.0641907	301.495
610.0000	2.63992	-0.000521371	0.0642978	301.623
609.5000	2.65556	-0.000528933	0.0650957	301.755
609.0000	2.5922	-0.000525091	0.0658208	301.877
608.5000	2.64732	-0.000530639	0.0667045	301.979
608.0000	2.53445	-0.000518128	0.0673361	302.087
607.5000	2.4049	-0.000534023	0.0675554	302.195
607.0000	2.58379	-0.000561285	0.0682519	302.313
606.5000	2.51823	-0.000562288	0.0690648	302.43
606.0000	2.57158	-0.000552679	0.0704694	302.536
605.5000	2.2861	-0.000542822	0.0716703	302.653
605.0000	2.3041	-0.000531466	0.0731395	302.76
604.5000	2.28226	-0.00052416	0.0742576	302.856
604.0000	1.82185	-0.000512589	0.075642	302.95
603.5000	1.54287	-0.000531968	0.0771741	303.042
603.0000	1.67692	-0.000535461	0.0782395	303.129
602.5000	1.56577	-0.000537896	0.0796825	303.205
602.0000	1.71506	-0.000541563	0.0813242	303.284
601.5000	1.57931	-0.00054392	0.0828298	303.362
601.0000	1.6465	-0.000535125	0.084233	303.43
600.5000	1.90143	-0.00054326	0.0861955	303.499
600.0000	1.7199	-0.000520002	0.0879577	303.572
599.5000	1.70631	-0.000513967	0.0904172	303.627
599.0000	1.81965	-0.000490528	0.0924138	303.672
598.5000	1.85429	-0.000477502	0.0950058	303.716
598.0000	1.95791	-0.000471982	0.0970925	303.751
597.5000	2.03104	-0.00046639	0.0989242	303.78
597.0000	2.04782	-0.000490298	0.101156	303.818
596.5000	2.01399	-0.000499728	0.103386	303.832
596.0000	2.15022	-0.000486317	0.105817	303.859
595.5000	2.25558	-0.000501529	0.108051	303.883
595.0000	2.30925	-0.000497232	0.110582	303.896
594.5000	2.55631	-0.000476746	0.113106	303.909
594.0000	2.67677	-0.000477991	0.115254	303.938
593.5000	2.78963	-0.000480832	0.117947	303.965
593.0000	2.82825	-0.000486247	0.12108	304.001
592.5000	2.82425	-0.000476012	0.123736	304.058
592.0000	2.91419	-0.000475648	0.126362	304.134
591.5000	2.72002	-0.000476571	0.128651	304.206
591.0000	2.5789	-0.000470386	0.131551	304.293
590.5000	2.67823	-0.000482616	0.134192	304.396
590.0000	2.78577	-0.000475203	0.137141	304.518
589.5000	2.84655	-0.00048693	0.140225	304.639
589.0000	2.68974	-0.000465061	0.143453	304.779
588.5000	2.907	-0.000459328	0.146704	304.945
588.0000	2.94439	-0.000462432	0.150336	305.134
587.5000	3.01537	-0.000447763	0.154087	305.349
587.0000	3.05869	-0.000439532	0.157896	305.607
586.5000	3.1235	-0.000448578	0.161495	305.853
586.0000	2.7408	-0.000429886	0.165613	306.099
585.5000	2.79964	-0.000415331	0.169595	306.385
585.0000	3.00262	-0.000387626	0.173594	306.688
584.5000	3.15767	-0.000380392	0.177643	306.997
584.0000	3.11641	-0.000368922	0.182109	307.322
583.5000	3.21341	-0.000365953	0.186966	307.683
583.0000	3.29571	-0.000340265	0.192552	308.093
582.5000	3.42589	-0.000324846	0.197901	308.519
582.0000	3.40425	-0.000310016	0.203255	308.943
581.5000	3.51224	-0.000279333	0.209087	309.418
581.0000	3.65544	-0.000283993	0.215449	309.92
580.5000	3.79719	-0.000271008	0.221791	310.427
580.0000	3.92979	-0.000236101	0.227954	310.935
579.5000	4.01636	-0.000217232	0.234247	311.472
579.0000	4.10768	-0.000171438	0.240719	312.015
578.5000	4.31209	-0.000123484	0.247809	312.579
578.0000	4.36077	-8.10611E-005	0.255137	313.196
577.5000	4.43495	-7.11568E-005	0.262436	313.869
577.0000	4.33944	-4.16994E-005	0.270407	314.522
576.5000	4.42892	6.47422E-006	0.279115	315.243
576.0000	4.52604	3.15363E-005	0.287821	315.971
575.5000	4.76945	5.67145E-005	0.29695	316.727
575.0000	4.81244	0.000102296	0.304985	317.433
574.5000	5.05669	0.000161573	0.313956	318.201
574.0000	5.37485	0.00020005	0.323274	318.976
573.5000	5.61242	0.00024004	0.332712	319.776
573.0000	5.58935	0.000275132	0.342311	320.641
572.5000	5.75651	0.000308275	0.351417	321.466
572.0000	5.95455	0.000332363	0.361812	322.428
571.5000	6.02002	0.000372477	0.372279	323.376
571.0000	6.12854	0.000400451	0.383831	324.376
570.5000	6.42228	0.000423943	0.395304	325.424
570.0000	6.73343	0.000465987	0.406465	326.457
569.5000	6.98467	0.000522825	0.418653	327.531
569.0000	7.28691	0.000553112	0.430834	328.602
568.5000	7.33021	0.000583506	0.441984	329.639
568.0000	7.99903	0.000616179	0.45325	330.718
567.5000	8.08609	0.000663692	0.464627	331.803
567.0000	8.2598	0.000685724	0.476226	332.875
566.5000	8.57034	0.000697585	0.487713	333.921
566.0000	8.49902	0.000725218	0.499078	334.955
565.5000	8.82998	0.000753643	0.50991	335.973
565.0000	9.10975	0.000778123	0.520673	336.952
564.5000	9.25449	0.000787351	0.531428	337.925
564.0000	9.77467	0.000803861	0.541597	338.811
563.5000	9.93022	0.000825714	0.550938	339.647
563.0000	9.90084	0.000808844	0.560303	340.518
562.5000	10.0056	0.000826386	0.568835	341.282
562.0000	9.90277	0.000796159	0.577073	342.012
561.5000	9.76621	0.000736047	0.586058	342.769
561.0000	9.67401	0.000708534	0.594195	343.482
560.5000	9.65556	0.000707954	0.601811	344.152
560.0000	9.58486	0.000674659	0.609173	344.769
559.5000	9.76992	0.00064057	0.616212	345.307
559.0000	9.8741	0.000605625	0.622166	345.758
558.5000	9.69174	0.000530349	0.627155	346.145
558.0000	9.84497	0.00048926	0.631238	346.449
557.5000	9.84126	0.000409818	0.635314	346.717
557.0000	9.63384	0.000366573	0.638988	346.929
556.5000	9.33064	0.000317461	0.641825	347.103
556.0000	9.03452	0.000277799	0.643481	347.207
555.5000	8.60423	0.000170062	0.645067	347.268
555.0000	8.85038	0.00012673	0.646297	347.27
554.5000	8.5706	4.63092E-005	0.647455	347.224
554.0000	8.84107	1.47291E-005	0.647465	347.117
553.5000	8.69951	-2.25879E-005	0.646923	346.95
553.0000	8.65228	-4.7692E-005	0.646063	346.759
552.5000	8.59921	-0.000120391	0.64548	346.546
552.0000	8.32803	-0.000190588	0.644339	346.267
551.5000	7.67632	-0.000254718	0.643035	345.985
551.0000	7.4018	-0.000285659	0.641129	345.683
550.5000	7.43797	-0.000344906	0.638985	345.339
550.0000	6.90257	-0.000365329	0.636854	344.968
549.5000	6.9166	-0.000389112	0.634816	344.588
549.0000	6.97821	-0.000410845	0.632249	344.215
548.5000	7.1716	-0.000458188	0.629547	343.839
548.0000	7.25075	-0.00048588	0.627659	343.425
547.5000	7.26531	-0.000486708	0.625922	343.051
547.0000	7.07485	-0.000484864	0.624065	342.644
546.5000	7.11924	-0.000476583	0.622051	342.286
546.0000	7.15535	-0.000475006	0.61955	341.95
545.5000	7.25385	-0.000471827	0.618154	341.618
545.0000	7.32791	-0.000478439	0.616903	341.348
544.5000	7.22339	-0.000472851	0.615691	341.072
544.0000	7.32531	-0.00043381	0.61435	340.828
543.5000	7.63793	-0.000432737	0.613176	340.59
543.0000	7.7301	-0.000416721	0.612532	340.39
542.5000	7.97717	-0.000388083	0.612462	340.22
542.0000	8.11026	-0.000334978	0.61223	340.069
541.5000	8.22611	-0.000307954	0.612372	339.976
541.0000	7.85713	-0.000283239	0.612452	339.9
540.5000	7.8573	-0.000240101	0.613337	339.833
540.0000	8.12684	-0.000212063	0.614647	339.796
539.5000	8.27762	-0.00020012	0.615911	339.806
539.0000	8.73541	-0.000168591	0.617214	339.856
538.5000	8.95129	-0.000156886	0.618991	339.935
538.0000	9.0276	-0.000164759	0.621397	340.036
537.5000	8.82565	-0.000150456	0.623924	340.161
537.0000	8.8225	-0.000140155	0.626461	340.31
536.5000	8.81974	-0.000123476	0.629337	340.479
536.0000	8.84736	-0.000127313	0.632749	340.685
535.5000	9.03738	-0.000119981	0.636453	340.931
535.0000	9.25662	-8.77877E-005	0.640626	341.208
534.5000	9.2304	-9.58849E-005	0.644433	341.459
534.0000	9.7812	-9.71975E-005	0.648747	341.767
533.5000	9.64245	-0.000122671	0.653112	342.103
533.0000	9.81853	-0.000159343	0.657365	342.438
532.5000	10.0294	-0.000153028	0.661886	342.809
532.0000	10.0143	-0.000173874	0.666912	343.219
531.5000	10.3867	-0.000174859	0.672131	343.634
531.0000	10.1309	-0.000175932	0.678059	344.061
530.5000	10.1945	-0.000215174	0.683595	344.489
530.0000	10.1304	-0.000216131	0.689216	344.943
529.5000	10.195	-0.000225878	0.694765	345.391
529.0000	10.1537	-0.000248025	0.700331	345.811
528.5000	10.1556	-0.000266502	0.705826	346.248
528.0000	10.1356	-0.000290334	0.711	346.655
527.5000	10.1237	-0.000327123	0.716649	347.085
527.0000	10.1358	-0.000388669	0.722781	347.552
526.5000	10.0649	-0.000441789	0.728322	347.995
526.0000	9.93144	-0.00048107	0.734359	348.457
525.5000	9.55986	-0.000510391	0.740218	348.899
525.0000	9.67103	-0.000559971	0.745853	349.322
524.5000	9.70822	-0.00059525	0.751115	349.695
524.0000	9.58751	-0.000648873	0.755963	350.029
523.5000	9.03878	-0.000698192	0.760581	350.374
523.0000	8.68621	-0.000763278	0.765051	350.703
522.5000	8.62127	-0.000829556	0.769193	351.026
522.0000	8.48763	-0.000860869	0.77362	351.35
521.5000	8.50118	-0.000899474	0.778271	351.675
521.0000	8.38308	-0.00093203	0.78234	351.958
520.5000	8.47519	-0.000987061	0.786353	352.236
520.0000	8.92402	-0.00103798	0.789847	352.471
519.5000	8.66006	-0.00109519	0.793525	352.697
519.0000	8.66805	-0.00113468	0.796853	352.913
518.5000	8.59787	-0.00117727	0.799693	353.111
518.0000	8.22908	-0.00124155	0.80292	353.315
517.5000	8.09865	-0.00130579	0.806147	353.509
517.0000	8.14947	-0.00138694	0.809427	353.685
516.5000	7.78232	-0.00144766	0.812772	353.864
516.0000	7.4998	-0.0014774	0.816054	354.059
515.5000	7.31411	-0.00156622	0.818799	354.247
515.0000	7.43954	-0.00161895	0.821504	354.419
514.5000	7.19068	-0.0016736	0.82416	354.601
514.0000	7.06884	-0.00171861	0.826521	354.741
513.5000	6.80059	-0.00181988	0.828929	354.877
513.0000	6.73016	-0.00191708	0.831054	355.022
512.5000	6.3867	-0.00199139	0.83383	355.209
512.0000	5.92557	-0.00204899	0.836411	355.369
511.5000	5.91651	-0.00210989	0.838719	355.539
511.0000	5.64451	-0.00217504	0.841073	355.697
510.5000	5.50414	-0.00222127	0.843477	355.833
510.0000	5.32759	-0.00227997	0.845806	355.964
509.5000	5.15115	-0.00229673	0.847941	356.09
509.0000	5.10158	-0.00235159	0.849979	356.22
508.5000	5.18461	-0.00239598	0.85185	356.321
508.0000	5.14583	-0.00243603	0.853764	356.392
507.5000	5.02501	-0.00247586	0.855597	356.445
507.0000	4.89252	-0.00252627	0.857509	356.501
506.5000	4.95817	-0.00256531	0.859289	356.546
506.0000	4.83956	-0.00257395	0.860701	356.597
505.5000	4.64641	-0.00260915	0.862116	356.646
505.0000	4.81493	-0.00264781	0.86341	356.673
504.5000	4.84534	-0.00270027	0.864743	356.69
504.0000	4.71563	-0.0027342	0.865655	356.668
503.5000	4.58539	-0.00277594	0.866213	356.614
503.0000	4.28127	-0.00282226	0.866673	356.531
502.5000	4.39509	-0.00284198	0.866696	356.421
502.0000	4.07959	-0.00289396	0.8667	356.317
501.5000	4.26798	-0.00293905	0.866492	356.169
501.0000	4.09164	-0.0029982	0.866062	355.986
500.5000	4.0635	-0.00302231	0.865543	355.766
500.0000	4.00596	-0.00309105	0.864779	355.502
499.5000	3.61637	-0.0031326	0.863382	355.196
499.0000	3.7352	-0.00319811	0.861558	354.771
498.5000	3.48223	-0.00323605	0.859509	354.239
498.0000	3.43403	-0.00325788	0.857109	353.58
497.5000	2.94706	-0.00331997	0.854746	352.758
497.0000	2.82846	-0.00339444	0.852733	351.878
496.5000	2.46336	-0.00342974	0.850808	350.935
496.0000	2.34756	-0.0034699	0.849742	350.142
495.5000	1.99145	-0.00353134	0.848962	349.513
495.0000	1.98583	-0.00357526	0.847664	349.05
494.5000	1.66363	-0.00362168	0.845814	348.637
494.0000	1.63497	-0.00368047	0.843633	348.235
493.5000	1.74454	-0.00371825	0.841032	347.787
493.0000	1.26611	-0.00377491	0.838719	347.384
492.5000	0.960473	-0.00384278	0.836396	346.981
492.0000	0.716291	-0.00389935	0.833721	346.557
491.5000	0.395117	-0.00395741	0.831098	346.184
491.0000	0.413388	-0.00400542	0.82874	345.839
490.5000	0.409527	-0.00405689	0.826231	345.517
490.0000	0.129691	-0.00412746	0.823635	345.238
489.5000	0.203804	-0.00418657	0.820982	345.015
489.0000	-0.237728	-0.00421173	0.81807	344.793
488.5000	-0.210666	-0.00424749	0.814931	344.564
488.0000	-0.322134	-0.00430164	0.810875	344.166
487.5000	-0.46362	-0.00433831	0.806198	343.541
487.0000	-0.448455	-0.00436975	0.802198	342.79
486.5000	-0.558965	-0.00441301	0.798018	341.899
486.0000	-0.72796	-0.00443433	0.794046	340.981
485.5000	-1.01519	-0.00447897	0.791183	340.066
485.0000	-0.976066	-0.00451213	0.788986	339.223
484.5000	-0.999755	-0.00453387	0.786515	338.532
484.0000	-0.953867	-0.00452648	0.783517	337.923
483.5000	-1.15893	-0.00456142	0.780492	337.398
483.0000	-0.993003	-0.00458111	0.776829	336.889
482.5000	-1.15213	-0.00462753	0.773022	336.453
482.0000	-1.07836	-0.00465123	0.769129	336.067
481.5000	-1.12028	-0.00465925	0.765259	335.681
481.0000	-1.16194	-0.00467877	0.761711	335.335
480.5000	-1.01095	-0.00471252	0.757823	335
480.0000	-1.02502	-0.00472994	0.753707	334.684
479.5000	-1.23495	-0.00475175	0.749367	334.354
479.0000	-1.37035	-0.00477012	0.743883	333.938
478.5000	-1.40977	-0.00479201	0.73808	333.309
478.0000	-1.14404	-0.00482853	0.732907	332.397
477.5000	-1.2617	-0.00481453	0.730099	331.565
477.0000	-1.38609	-0.00480078	0.727609	330.945
476.5000	-1.53235	-0.00480836	0.722559	330.331
476.0000	-1.31596	-0.00482259	0.716278	329.533
475.5000	-1.38398	-0.00485311	0.709654	328.502
475.0000	-1.2951	-0.00486658	0.703017	327.266
474.5000	-1.3726	-0.00484931	0.697275	325.944
474.0000	-1.42219	-0.00485282	0.691906	324.488
473.5000	-1.49836	-0.00485162	0.686117	322.822
473.0000	-1.51729	-0.00485183	0.680239	320.995
472.5000	-1.28322	-0.00483399	0.675163	319.033
472.0000	-1.35026	-0.00481271	0.67203	317.343
471.5000	-1.1823	-0.00478715	0.669385	315.966
471.0000	-1.03578	-0.00475816	0.667166	315.133
470.5000	-1.03892	-0.00474641	0.664655	314.564
470.0000	-1.30551	-0.00471829	0.661829	314.333
469.5000	-1.1274	-0.00469308	0.657209	314.219
469.0000	-1.02231	-0.00469559	0.649116	313.803
468.5000	-1.1787	-0.00468293	0.640618	312.956
468.0000	-1.22416	-0.00466216	0.633983	311.969
467.5000	-1.33756	-0.00463885	0.6289	311.103
467.0000	-1.19292	-0.00459758	0.625058	310.453
466.5000	-1.25604	-0.00457155	0.621708	310.014
466.0000	-1.25867	-0.00453487	0.617535	309.753
465.5000	-1.14141	-0.00450397	0.612884	309.69
465.0000	-1.01997	-0.00444324	0.607825	309.887
464.5000	-1.05134	-0.00440698	0.601631	310.27
464.0000	-1.29685	-0.00437227	0.593729	310.562
463.5000	-1.11407	-0.00433872	0.584592	310.536
463.0000	-1.11539	-0.00430837	0.575553	310.162
462.5000	-1.1795	-0.00427094	0.567935	309.612
462.0000	-1.07748	-0.00421577	0.561388	309.003
461.5000	-1.00794	-0.00417394	0.555421	308.472
461.0000	-0.995968	-0.00413961	0.549459	308.051
460.5000	-0.922724	-0.00409343	0.543301	307.762
460.0000	-0.725011	-0.00404731	0.537407	307.582
459.5000	-0.839087	-0.00399969	0.531126	307.455
459.0000	-0.749688	-0.00393105	0.523896	307.283
458.5000	-0.820281	-0.00388803	0.516211	307.026
458.0000	-0.661122	-0.00384634	0.508294	306.642
457.5000	-0.731048	-0.00381092	0.500291	306.048
457.0000	-0.762948	-0.00376181	0.492521	305.249
456.5000	-0.723672	-0.00370752	0.48602	304.45
456.0000	-0.491816	-0.00363398	0.479399	303.752
455.5000	-0.385845	-0.00358281	0.471086	302.92
455.0000	-0.381225	-0.00353409	0.463208	301.95
454.5000	-0.427642	-0.00346794	0.457017	301.009
454.0000	-0.407411	-0.00339117	0.451551	300.306
453.5000	-0.278031	-0.00333072	0.44523	299.821
453.0000	-0.0982175	-0.00327128	0.43832	299.35
452.5000	0.109522	-0.00319936	0.431584	298.852
452.0000	0.0848896	-0.0031301	0.424903	298.299
451.5000	0.180696	-0.00307362	0.417995	297.73
451.0000	0.400248	-0.00300994	0.411503	297.19
450.5000	0.271342	-0.00296255	0.404778	296.613
450.0000	0.532029	-0.00289167	0.398712	296.05
449.5000	0.704331	-0.00282955	0.393422	295.593
449.0000	0.793225	-0.0027746	0.388534	295.294
448.5000	0.584552	-0.00271583	0.382444	295.03
448.0000	0.686855	-0.00266607	0.375907	294.664
447.5000	0.850094	-0.00261148	0.370409	294.266
447.0000	0.847067	-0.00255339	0.366474	294.075
446.5000	0.717953	-0.00249209	0.362284	294.079
446.0000	0.905186	-0.00246538	0.35565	293.984
445.5000	0.618147	-0.00241597	0.348698	293.594
445.0000	0.587074	-0.00236481	0.342604	293.013
444.5000	0.319852	-0.00232268	0.336958	292.399
444.0000	0.525357	-0.00226013	0.331411	291.767
443.5000	0.504253	-0.00220977	0.325909	291.073
443.0000	0.527673	-0.00214851	0.32131	290.449
442.5000	0.459409	-0.00209426	0.316845	289.847
442.0000	0.516652	-0.00204059	0.312738	289.349
441.5000	0.489754	-0.00200776	0.307974	288.823
441.0000	0.295863	-0.00195554	0.303533	288.344
440.5000	0.0141241	-0.00192017	0.299205	287.877
440.0000	0.12802	-0.00187739	0.29468	287.398
439.5000	0.315728	-0.00182491	0.289974	286.909
439.0000	0.253933	-0.00176194	0.28495	286.398
438.5000	0.273458	-0.00171149	0.279582	285.876
438.0000	0.136011	-0.0016492	0.274173	285.371
437.5000	0.2888	-0.0015889	0.269276	284.903
437.0000	0.489855	-0.00154434	0.263927	284.413
436.5000	0.665678	-0.00149949	0.259741	283.995
436.0000	0.625742	-0.00146407	0.255881	283.624
435.5000	0.543772	-0.00142943	0.25168	283.287
435.0000	0.471474	-0.00138573	0.247164	282.957
434.5000	0.549883	-0.00133061	0.242703	282.635
434.0000	0.613188	-0.00129583	0.238197	282.276
433.5000	0.509801	-0.00124746	0.233995	281.916
433.0000	0.622674	-0.00119954	0.230067	281.53
432.5000	0.733203	-0.00116225	0.226168	281.141
432.0000	0.938878	-0.00111072	0.221951	280.73
431.5000	0.848024	-0.00108053	0.217875	280.32
431.0000	0.939444	-0.00105129	0.214009	279.916
430.5000	0.849016	-0.000998792	0.210404	279.525
430.0000	0.764245	-0.000974025	0.207153	279.152
429.5000	0.787282	-0.000941717	0.203458	278.745
429.0000	0.592959	-0.000906708	0.19995	278.348
428.5000	0.712979	-0.000864202	0.196328	277.95
428.0000	0.813831	-0.00082586	0.192422	277.552
427.5000	0.778555	-0.000786547	0.189196	277.195
427.0000	0.830963	-0.000742795	0.186001	276.829
426.5000	0.846938	-0.00072357	0.182988	276.472
426.0000	0.854841	-0.000681172	0.179823	276.082
425.5000	0.83664	-0.000651507	0.176924	275.677
425.0000	0.683243	-0.000620282	0.173747	275.239
424.5000	0.671427	-0.000587822	0.170692	274.78
424.0000	0.727948	-0.000558999	0.167952	274.331
423.5000	0.492465	-0.000550609	0.165824	273.941
423.0000	0.556256	-0.00052247	0.163577	273.604
422.5000	0.421818	-0.000498511	0.161101	273.304
422.0000	0.474786	-0.000487072	0.158529	273.025
421.5000	0.703645	-0.000454754	0.155956	272.755
421.0000	0.968121	-0.000434423	0.15353	272.493
420.5000	0.894075	-0.000405661	0.151014	272.228
420.0000	0.850097	-0.000381821	0.148642	271.96
419.5000	0.764847	-0.000361691	0.146458	271.691
419.0000	0.704089	-0.00034282	0.14432	271.436
418.5000	0.635468	-0.000328977	0.142123	271.212
418.0000	0.389242	-0.00030791	0.140203	270.99
417.5000	0.334253	-0.000283425	0.138088	270.769
417.0000	0.326717	-0.000264778	0.136483	270.58
416.5000	0.499153	-0.000246604	0.135086	270.444
416.0000	0.363384	-0.000239092	0.133539	270.358
415.5000	0.372388	-0.000213468	0.131642	270.256
415.0000	0.421838	-0.000179414	0.129538	270.099
414.5000	0.336148	-0.000165816	0.127822	269.904
414.0000	0.368027	-0.000154179	0.126423	269.695
413.5000	0.239325	-0.000114702	0.125217	269.486
413.0000	0.122384	-9.43853E-005	0.124246	269.31
412.5000	0.111216	-7.74136E-005	0.123102	269.142
412.0000	0.250363	-5.67301E-005	0.122267	269.011
411.5000	0.343891	-3.4807E-005	0.121008	268.866
411.0000	0.309972	-2.70927E-005	0.119846	268.734
410.5000	0.24799	-2.02352E-005	0.118945	268.617
410.0000	0.388677	-3.14204E-006	0.118298	268.521
409.5000	0.346849	4.05764E-006	0.117773	268.449
409.0000	0.530744	5.7897E-006	0.117226	268.393
408.5000	0.514069	1.0628E-005	0.116407	268.34
408.0000	0.390626	3.45872E-005	0.115469	268.29
407.5000	0.521941	5.34442E-005	0.11435	268.219
407.0000	0.549747	5.78443E-005	0.113539	268.149
406.5000	0.458381	5.66499E-005	0.112897	268.078
406.0000	0.386793	7.77864E-005	0.112189	267.998
405.5000	0.3463	0.000103522	0.111404	267.916
405.0000	0.441088	9.4142E-005	0.110655	267.816
404.5000	0.504424	0.00010945	0.10998	267.702
404.0000	0.380679	0.000123058	0.109845	267.581
403.5000	0.301258	0.000130258	0.109497	267.417
403.0000	0.290746	0.000136149	0.109487	267.24
402.5000	0.406755	0.00015242	0.109054	267.042
402.0000	0.303016	0.000163665	0.109042	266.853
401.5000	0.384979	0.00016908	0.109294	266.656
401.0000	0.337598	0.000175737	0.109183	266.468
400.5000	0.248523	0.000192309	0.109088	266.292
400.0000	0.248387	0.000200317	0.108937	266.143
399.5000	0.372568	0.000198501	0.109436	266.016
399.0000	0.30989	0.000210321	0.109986	265.926
398.5000	0.312362	0.000207504	0.110261	265.846
398.0000	0.404088	0.000224084	0.110537	265.791
397.5000	0.325534	0.000212302	0.110677	265.749
397.0000	0.297817	0.000208659	0.111183	265.735
396.5000	0.267055	0.000218061	0.111549	265.756
396.0000	0.124347	0.000211259	0.111901	265.794
395.5000	-0.0453362	0.000201089	0.111878	265.857
395.0000	-0.0493555	0.000204821	0.112062	265.952
394.5000	0.0328049	0.000209666	0.112436	266.079
394.0000	0.0677811	0.000218642	0.112791	266.226
393.5000	0.0241971	0.000213942	0.112968	266.399
393.0000	0.00669694	0.000209266	0.113009	266.587
392.5000	0.0475374	0.000228236	0.113212	266.765
392.0000	0.0524921	0.000226165	0.113671	266.93
391.5000	0.0463406	0.000238395	0.11437	267.082
391.0000	-0.111984	0.00022841	0.114803	267.212
390.5000	-0.212176	0.000228165	0.114916	267.326
390.0000	-0.319269	0.000235559	0.115261	267.449
389.5000	-0.307636	0.000242057	0.115768	267.549
389.0000	-0.178742	0.000235255	0.116424	267.64
388.5000	-0.134379	0.000238945	0.11683	267.725
388.0000	-0.0388202	0.000239169	0.117245	267.818
387.5000	-0.045981	0.000243266	0.117891	267.899
387.0000	-0.00714271	0.000258345	0.11902	267.979
386.5000	-0.0571681	0.000260327	0.11983	268.041
386.0000	-0.184564	0.000253451	0.120887	268.109
385.5000	-0.238736	0.000245599	0.121862	268.165
385.0000	-0.212483	0.000253502	0.122804	268.212
384.5000	-0.253655	0.000246892	0.123644	268.249
384.0000	-0.346683	0.000245024	0.124794	268.301
383.5000	-0.170557	0.000256384	0.125692	268.354
383.0000	-0.0482231	0.000255861	0.126309	268.395
382.5000	0.181915	0.000261861	0.127104	268.445
382.0000	0.255935	0.000269586	0.128403	268.5
381.5000	0.350686	0.000266858	0.129742	268.548
381.0000	0.271134	0.000278707	0.131034	268.62
380.5000	0.251259	0.000275209	0.132063	268.685
380.0000	0.227182	0.000275168	0.133361	268.753
379.5000	0.23189	0.000282108	0.134545	268.807
379.0000	0.272442	0.00027074	0.135413	268.866
378.5000	0.295175	0.000255714	0.135985	268.927
378.0000	0.235782	0.000249793	0.136663	268.991
377.5000	0.278433	0.000242284	0.13733	269.041
377.0000	0.475704	0.000254138	0.137953	269.087
376.5000	0.402647	0.000258511	0.138859	269.135
376.0000	0.29823	0.000255878	0.139762	269.177
375.5000	0.468403	0.000242474	0.140207	269.195
375.0000	0.433474	0.000218726	0.140807	269.218
374.5000	0.24714	0.000200942	0.141424	269.235
374.0000	0.190264	0.000193465	0.14196	269.242
373.5000	0.246463	0.000179218	0.142542	269.26
373.0000	0.240975	0.000155034	0.142881	269.278
372.5000	0.327982	0.000156973	0.143054	269.273
372.0000	0.491406	0.000152458	0.143477	269.285
371.5000	0.5419	0.000142448	0.143785	269.295
371.0000	0.472402	0.000121839	0.144364	269.313
370.5000	0.554568	0.000136377	0.145038	269.335
370.0000	0.518159	0.000135861	0.145574	269.358
369.5000	0.607023	0.000136441	0.146069	269.384
369.0000	0.68992	0.000131993	0.146631	269.418
368.5000	0.516285	0.000114237	0.147463	269.47
368.0000	0.614172	0.000105641	0.148013	269.522
367.5000	0.618958	0.000104113	0.148751	269.585
367.0000	0.701123	0.000102296	0.149789	269.659
366.5000	0.757772	0.000103884	0.150532	269.735
366.0000	0.668124	0.000105721	0.151321	269.826
365.5000	0.600797	9.97908E-005	0.151835	269.895
365.0000	0.745189	0.000110578	0.15217	269.96
364.5000	0.732863	9.8419E-005	0.152827	270.033
364.0000	0.732762	9.49178E-005	0.153435	270.119
363.5000	0.729916	9.88908E-005	0.15432	270.202
363.0000	0.722196	7.36238E-005	0.155227	270.291
362.5000	0.690319	6.26619E-005	0.155966	270.377
362.0000	0.820504	5.1001E-005	0.156559	270.454
361.5000	0.78349	4.81176E-005	0.157358	270.533
361.0000	0.77377	3.50281E-005	0.158291	270.626
360.5000	0.690722	3.12007E-005	0.158864	270.707
360.0000	0.786529	2.37635E-005	0.15944	270.779
359.5000	0.915333	9.44663E-006	0.160024	270.859
359.0000	0.895225	-1.61696E-005	0.160286	270.932
358.5000	1.00601	-2.29966E-005	0.160442	271.005
358.0000	0.9178	-3.383E-005	0.160519	271.068
357.5000	0.988925	-3.32422E-005	0.160657	271.138
357.0000	0.967196	-6.00111E-005	0.161316	271.231
356.5000	1.08092	-5.85314E-005	0.162192	271.315
356.0000	1.14718	-7.03056E-005	0.162435	271.375
355.5000	1.05432	-9.03303E-005	0.162882	271.455
355.0000	1.11979	-0.000107396	0.16325	271.539
354.5000	1.20679	-0.000105766	0.163496	271.613
354.0000	1.18197	-0.000119444	0.163868	271.689
353.5000	1.26693	-0.000122649	0.164323	271.771
353.0000	1.32267	-0.000123721	0.164697	271.854
352.5000	1.48924	-0.000129019	0.165053	271.934
352.0000	1.68793	-0.000145546	0.165475	272.018
351.5000	1.61655	-0.000151436	0.16587	272.096
351.0000	1.69653	-0.000164941	0.1665	272.166
350.5000	1.73498	-0.000181463	0.167328	272.243
350.0000	1.55719	-0.00018838	0.168291	272.328
349.5000	1.58951	-0.000199607	0.169395	272.418
349.0000	1.6059	-0.000210611	0.170556	272.505
348.5000	1.67591	-0.00021461	0.171736	272.587
348.0000	1.60118	-0.000232022	0.172675	272.671
347.5000	1.48026	-0.000246787	0.173937	272.758
347.0000	1.44252	-0.000261451	0.175099	272.832
346.5000	1.33925	-0.000291636	0.176102	272.911
346.0000	1.41557	-0.000304047	0.176983	272.985
345.5000	1.35168	-0.00031854	0.178158	273.07
345.0000	1.28155	-0.000347069	0.179351	273.153
344.5000	1.31162	-0.000370681	0.180611	273.241
344.0000	1.27459	-0.000391993	0.181937	273.32
343.5000	1.15887	-0.000437786	0.182995	273.398
343.0000	1.18633	-0.000461729	0.184001	273.48
342.5000	1.285	-0.000464721	0.184819	273.559
342.0000	1.25446	-0.000474454	0.185697	273.647
341.5000	1.32451	-0.00049854	0.186676	273.734
341.0000	1.60826	-0.000505726	0.187829	273.818
340.5000	1.68182	-0.000542022	0.188704	273.903
340.0000	1.6455	-0.000561006	0.189496	273.983
339.5000	1.63506	-0.000591463	0.19016	274.075
339.0000	1.80835	-0.000610829	0.191102	274.166
338.5000	1.89083	-0.000625594	0.192164	274.262
338.0000	2.00482	-0.000634942	0.193095	274.352
337.5000	2.06326	-0.000663051	0.193983	274.445
337.0000	2.34654	-0.000684946	0.194671	274.53
336.5000	2.41534	-0.000713765	0.195607	274.617
336.0000	2.60438	-0.000740491	0.196594	274.722
335.5000	2.72256	-0.00075692	0.197623	274.829
335.0000	2.70971	-0.000775636	0.19867	274.937
334.5000	2.81432	-0.000805832	0.199738	275.056
334.0000	3.01988	-0.000846126	0.200783	275.162
333.5000	2.99656	-0.000877779	0.20237	275.285
333.0000	2.97606	-0.000906393	0.203463	275.396
332.5000	2.96035	-0.00096249	0.204321	275.511
332.0000	3.09403	-0.000978241	0.205321	275.633
331.5000	3.31485	-0.00101284	0.206539	275.754
331.0000	3.47356	-0.00104039	0.207861	275.881
330.5000	3.44512	-0.00107465	0.208875	276.001
330.0000	3.47195	-0.00110342	0.210025	276.124
329.5000	3.43807	-0.00114294	0.211354	276.264
329.0000	3.44574	-0.00119844	0.212535	276.401
328.5000	3.43613	-0.00122533	0.213845	276.538
328.0000	3.35815	-0.0012539	0.214813	276.654
327.5000	3.21927	-0.00129163	0.215898	276.763
327.0000	3.31663	-0.00133199	0.217151	276.863
326.5000	3.43651	-0.00136171	0.218699	276.988
326.0000	3.21879	-0.00140507	0.220384	277.122
325.5000	3.17963	-0.00144208	0.221879	277.259
325.0000	3.307	-0.00149467	0.223059	277.398
324.5000	3.41239	-0.00154464	0.224623	277.558
324.0000	3.34967	-0.00157588	0.226292	277.711
323.5000	3.24813	-0.00162949	0.228135	277.87
323.0000	3.05948	-0.00167906	0.229789	278.036
322.5000	2.8399	-0.00172591	0.231385	278.2
322.0000	2.75905	-0.00176347	0.232958	278.375
321.5000	2.92368	-0.00179946	0.234801	278.552
321.0000	2.84837	-0.00184807	0.236768	278.738
320.5000	2.93519	-0.0018786	0.238816	278.925
320.0000	2.98182	-0.00191299	0.240618	279.104
319.5000	2.97023	-0.00196589	0.242701	279.308
319.0000	3.11429	-0.00199141	0.244592	279.519
318.5000	2.99045	-0.00203854	0.246444	279.736
318.0000	2.90448	-0.00208269	0.248161	279.936
317.5000	3.20636	-0.00211647	0.249963	280.124
317.0000	3.22093	-0.00215471	0.252129	280.319
316.5000	3.19183	-0.00218404	0.254238	280.494
316.0000	3.35319	-0.00221161	0.256611	280.697
315.5000	3.52552	-0.00223905	0.258613	280.899
315.0000	3.77575	-0.00226117	0.260836	281.132
314.5000	3.8574	-0.00228803	0.263061	281.366
314.0000	4.03935	-0.00231517	0.265406	281.602
313.5000	4.23206	-0.00234359	0.267897	281.847
313.0000	4.52749	-0.00238163	0.270557	282.118
312.5000	4.54425	-0.0024058	0.273055	282.385
312.0000	4.60875	-0.00243968	0.275886	282.665
311.5000	4.59174	-0.00246145	0.278555	282.942
311.0000	4.6026	-0.00248483	0.281574	283.229
310.5000	4.71599	-0.0025269	0.284678	283.564
310.0000	4.69125	-0.00254285	0.287873	283.887
309.5000	4.8383	-0.00256963	0.291463	284.243
309.0000	4.82667	-0.0026132	0.295504	284.647
308.5000	4.93387	-0.00263848	0.29932	285.061
308.0000	4.9477	-0.00268108	0.302975	285.455
307.5000	4.78842	-0.00272143	0.307409	285.915
307.0000	4.79237	-0.00274349	0.311841	286.355
306.5000	4.90272	-0.00278121	0.316795	286.845
306.0000	5.18778	-0.00280945	0.321925	287.339
305.5000	4.95821	-0.00283624	0.327548	287.907
305.0000	4.98913	-0.00287701	0.333166	288.463
304.5000	4.82894	-0.00290803	0.339467	289.07
304.0000	4.98308	-0.00292835	0.346308	289.721
303.5000	5.01799	-0.00296582	0.353115	290.371
303.0000	5.16453	-0.00300148	0.360703	291.118
302.5000	5.08092	-0.00306096	0.368608	291.901
302.0000	5.04681	-0.00309965	0.377162	292.728
301.5000	4.99467	-0.00314258	0.385968	293.577
301.0000	5.08009	-0.00317042	0.394899	294.461
300.5000	5.13746	-0.00318842	0.402871	295.255
300.0000	5.13417	-0.00322229	0.413026	296.233
299.5000	5.14831	-0.00323867	0.42298	297.206
299.0000	5.45172	-0.00325107	0.432939	298.195
298.5000	5.30101	-0.00328665	0.443342	299.241
298.0000	5.3609	-0.00330298	0.453406	300.245
297.5000	5.42291	-0.00331385	0.4642	301.317
297.0000	5.3706	-0.00333084	0.474277	302.277
296.5000	5.34248	-0.00333031	0.484237	303.247
296.0000	5.36313	-0.00333072	0.494545	304.257
295.5000	5.33704	-0.00330788	0.505281	305.283
295.0000	5.35444	-0.0032881	0.515611	306.255
294.5000	5.41544	-0.00325489	0.525943	307.242
294.0000	5.54161	-0.00321111	0.536504	308.297
293.5000	5.62921	-0.00317627	0.545447	309.209
293.0000	5.55668	-0.00310866	0.555458	310.221
292.5000	5.65249	-0.00305921	0.565832	311.292
292.0000	5.55824	-0.00301095	0.575601	312.318
291.5000	5.58014	-0.00293863	0.585466	313.342
291.0000	5.48924	-0.00288531	0.595362	314.37
290.5000	5.32875	-0.00280447	0.605914	315.459
290.0000	4.98485	-0.00270738	0.616312	316.515
289.5000	4.81072	-0.00261693	0.625852	317.518
289.0000	4.81852	-0.00253908	0.635464	318.537
288.5000	4.69453	-0.00245438	0.646017	319.666
288.0000	4.44184	-0.00237224	0.656346	320.779
287.5000	4.47926	-0.00228664	0.666929	321.933
287.0000	4.34933	-0.00222691	0.677574	323.139
286.5000	4.12254	-0.00214272	0.687887	324.335
286.0000	3.78234	-0.00206114	0.698372	325.514
285.5000	3.62221	-0.00198785	0.709325	326.692
285.0000	3.44366	-0.0018903	0.720909	327.943
284.5000	3.33609	-0.00181311	0.731411	329.088
284.0000	3.18679	-0.00173362	0.742564	330.303
283.5000	3.04243	-0.00166087	0.75402	331.54
283.0000	2.81239	-0.00158797	0.764911	332.727
282.5000	2.48647	-0.00150109	0.776589	333.997
282.0000	2.75503	-0.0014009	0.78811	335.289
281.5000	2.40697	-0.00135113	0.79921	336.544
281.0000	2.18632	-0.00126922	0.810705	337.824
280.5000	2.05821	-0.00118422	0.822661	339.183
280.0000	1.65667	-0.00110607	0.834825	340.565
279.5000	1.17854	-0.00105048	0.847216	341.988
279.0000	0.658941	-0.000977975	0.858779	343.336
278.5000	0.532856	-0.000867662	0.871312	344.788
278.0000	0.647527	-0.000775862	0.885208	346.351
277.5000	0.41077	-0.000694779	0.897962	347.793
277.0000	0.0922541	-0.000621396	0.911411	349.35
276.5000	-0.137907	-0.000505301	0.92499	350.943
276.0000	-0.381837	-0.000452991	0.937513	352.411
275.5000	-0.553489	-0.00037149	0.951843	354.065
275.0000	-0.703895	-0.000271311	0.966343	355.753
274.5000	-0.791779	-0.000180541	0.981033	357.492
274.0000	-0.763256	-7.90917E-005	0.99664	359.378
273.5000	-1.03477	-1.82937E-005	1.01131	361.123
273.0000	-0.949901	7.41868E-005	1.02707	363.001
272.5000	-1.28889	0.000185681	1.04316	364.937
272.0000	-1.14234	0.000248785	1.05957	366.938
271.5000	-1.00278	0.000365385	1.0772	369.098
271.0000	-0.963977	0.00051814	1.09468	371.214
270.5000	-0.839917	0.000571263	1.11295	373.414
270.0000	-0.65203	0.000648694	1.13128	375.673
269.5000	-0.92104	0.000747211	1.14976	378.002
269.0000	-1.04242	0.000794044	1.16802	380.299
268.5000	-1.01877	0.000851716	1.18792	382.801
268.0000	-0.754683	0.000914519	1.20852	385.391
267.5000	-0.671308	0.00098723	1.2297	388.076
267.0000	-0.526796	0.00107918	1.25236	391.004
266.5000	-0.846875	0.00113339	1.27533	394.016
266.0000	-0.956958	0.00119577	1.29696	396.812
265.5000	-0.916563	0.00124874	1.32036	399.822
265.0000	-0.84416	0.00129874	1.34482	403.04
264.5000	-0.94193	0.00130977	1.36817	406.164
264.0000	-0.691475	0.00137062	1.39164	409.325
263.5000	-1.21995	0.0014028	1.41657	412.672
263.0000	-0.797881	0.00145056	1.43888	415.695
262.5000	-0.58123	0.00147042	1.46332	419.076
262.0000	-0.777719	0.00149247	1.48622	422.319
261.5000	-0.259178	0.00145936	1.5094	425.585
261.0000	0.266743	0.00149951	1.53194	428.724
260.5000	0.687482	0.00150339	1.55545	432.044
260.0000	0.736922	0.00155931	1.57885	435.391
259.5000	0.682042	0.00156327	1.60242	438.802
259.0000	0.500049	0.0015418	1.62601	442.271
258.5000	1.05924	0.0014614	1.65033	445.818
258.0000	1.51464	0.00146649	1.67513	449.454
257.5000	1.48648	0.0014085	1.69918	452.997
257.0000	1.94251	0.00141347	1.72524	456.856
256.5000	1.6987	0.00137977	1.75083	460.655
256.0000	2.52532	0.00133105	1.77896	464.825
255.5000	2.95628	0.00125156	1.80828	469.173
255.0000	3.89529	0.00123622	1.83881	473.738
254.5000	5.1765	0.00115756	1.86887	478.26
254.0000	4.73803	0.00113275	1.90008	482.972
253.5000	5.80647	0.00109609	1.9364	488.417
253.0000	6.20716	0.00102355	1.97018	493.549
252.5000	6.26614	0.000930176	2.02188	501.531
252.0000	5.51685	0.000703352	2.06631	508.436
251.5000	6.29937	0.000620855	2.10648	514.709
251.0000	5.75119	0.000442185	2.14834	521.245
250.5000	5.53001	0.000371735	2.1914	528.061
250.0000	5.55489	0.000249895	2.23331	534.781
249.5000	6.00517	-1.07364E-005	2.27647	541.771
249.0000	4.95155	-0.000171681	2.3234	549.436
248.5000	5.24336	-0.000322118	2.36942	556.994
248.0000	4.79828	-0.000542731	2.41936	565.293
247.5000	2.10329	-0.000690186	2.46823	573.531
247.0000	2.53423	-0.000784508	2.5212	582.58
246.5000	1.24603	-0.000987559	2.57622	592.06
246.0000	1.50421	-0.00110221	2.6334	602.007
245.5000	2.27362	-0.000943001	2.69495	612.94
245.0000	0.241518	-0.00103445	2.75899	624.475
244.5000	0.656968	-0.00105832	2.82552	636.627
244.0000	2.10612	-0.00114475	2.8943	649.423
243.5000	2.03159	-0.001224	2.96188	662.232
243.0000	3.56802	-0.00104909	3.03087	675.576
242.5000	3.02089	-0.00103541	3.10852	690.892
242.0000	3.21787	-0.00115089	3.17683	704.628
241.5000	3.37756	-0.000819024	3.2534	720.316
241.0000	5.18767	-0.000905414	3.32361	734.987
240.5000	5.2938	-0.00106798	3.39997	751.366
240.0000	6.40171	-0.000814834	3.4688	766.433
239.5000	7.28328	-0.00055035	3.54702	783.929
239.0000	7.64494	-0.000631298	3.61295	798.971
238.5000	7.82515	-0.00038835	3.67977	814.559
238.0000	5.72503	-0.000322759	3.74615	830.485
237.5000	2.48092	-0.000518737	3.80281	844.437
237.0000	3.22091	-0.0007716	3.85859	858.499
236.5000	4.47777	-0.000673089	3.90992	871.778
236.0000	1.66278	-0.000452544	3.9544	883.575
235.5000	3.17297	-0.000217333	4.00026	896.172
235.0000	2.28085	-0.000234039	4.02804	904.056
234.5000	0.764943	-9.47293E-006	4.05487	911.859
234.0000	2.98126	-7.17125E-005	4.08013	919.436
233.5000	3.08193	0.000235934	4.10445	926.996
233.0000	-1.45097	9.06218E-005	4.12542	933.906
232.5000	1.45796	0.000517236	4.14105	939.554
232.0000	2.72519	0.000800909	4.15436	945.031
231.5000	0.174749	0.000839657	4.16162	948.715
231.0000	1.57035	0.000641722	4.16637	952.033
230.5000	0.578456	0.000598468	4.16798	954.697
230.0000	1.50811	0.000135758	4.16671	956.654
229.5000	3.41578	0.000278105	4.16363	958.294
229.0000	3.77982	0.000382615	4.15851	959.489
228.5000	8.80358	0.000690542	4.15235	960.415
228.0000	6.14585	0.000621585	4.14527	961.018
227.5000	5.70372	0.000273068	4.13664	961.505
227.0000	3.25928	0.000352052	4.12729	961.848
226.5000	3.00637	0.000134706	4.11705	962.121
226.0000	4.44725	-6.85305E-005	4.10729	962.323
225.5000	4.51548	0.000122987	4.09672	962.529
225.0000	5.34403	-0.000102462	4.08524	962.661
224.5000	6.44038	-0.000403716	4.07349	962.805
224.0000	4.07165	-0.000563117	4.06141	962.848
223.5000	1.8086	-0.000482453	4.04951	962.868
223.0000	2.46151	-0.000383288	4.0379	962.92
222.5000	1.23267	-0.000143957	4.02335	962.943
222.0000	-0.0430156	-0.000126417	4.0101	962.994
221.5000	-5.12164	1.92431E-005	3.99598	963.01
221.0000	-5.03157	1.03416E-005	3.98401	963.054
220.5000	-7.43807	-3.3579E-005	3.97187	963.081
220.0000	-10.9571	2.66288E-007	3.95916	963.147

##### Extended Information
[Comments]
Sample name	JS187+JS190_5E-5_H2O_54-46_100EQDT+72H
Comment
User
Division
Company	Labo systeme complexes hors equilibre

[Detailed Information]
Creation date	1/26/2024 10:43 AM

Data array type	Linear data array * 4
Horizontal axis	Wavelength [nm]
Vertical axis(1)	CD [mdeg]
Vertical axis(2)	LD [dOD]
Vertical axis(3)	Abs
Vertical axis(4)	HT [V]
Start	700 nm
End	220 nm
Data interval	0.5 nm
Data points	961     

[Measurement Information]
Instrument name	CD Jasco
Model name	J-1500
Serial No.	A005261638

Detector	PM-539
Detector S/N	A0052PM539
  Lock-in amp.	X mode
  HT volt	Auto

Detector	EXPML-535
Detector S/N	A0001
  Lock-in amp.	X mode
  HT volt	Auto

Measurement date	1/26/2024 10:42 AM

Overload detect	1
Photometric mode	CD, LD, Abs, HT
Measure range	700 - 220 nm
Data pitch	0.5 nm
CD scale	200 mdeg/1.0 dOD
FL scale	200 mdeg/1.0 dOD
D.I.T.	1 sec
Bandwidth	1.00 nm
Start mode	Immediately
Scanning speed	500 nm/min
Baseline correction	Baseline
Shutter control	Auto


