TITLE	JS187+JS190_5E-5_H2O_35-65_100EQDT+72H
DATA TYPE	
ORIGIN	JASCO
OWNER	
DATE	24/01/26
TIME	11:09:12
SPECTROMETER/DATA SYSTEM	
LOCALE	1033
RESOLUTION	
DELTAX	-0.5
XUNITS	NANOMETERS
YUNITS	CD [mdeg]
Y2UNITS	LD [dOD]
Y3UNITS	ABSORBANCE
Y4UNITS	HT [V]
FIRSTX	  700.0000
LASTX	  220.0000
NPOINTS	     961
FIRSTY	     1.48205
MAXY	    13.93172
MINY	   -21.09886
XYDATA
700.0000	1.48205	-0.000423441	-0.0153117	302.884
699.5000	1.27353	-0.000418198	-0.0160236	302.612
699.0000	1.24416	-0.000407475	-0.0166091	302.307
698.5000	1.29844	-0.000391725	-0.0168424	301.951
698.0000	1.36837	-0.000379815	-0.0173833	301.566
697.5000	1.21797	-0.000367148	-0.0183456	301.167
697.0000	1.22459	-0.000349678	-0.0195458	300.728
696.5000	1.37367	-0.000357924	-0.0200798	300.269
696.0000	1.35692	-0.000361017	-0.0199794	299.753
695.5000	1.43007	-0.000374599	-0.01994	299.232
695.0000	1.36161	-0.000392326	-0.019551	298.747
694.5000	1.02453	-0.000400702	-0.0193721	298.262
694.0000	1.10619	-0.000397062	-0.0183154	297.783
693.5000	1.17118	-0.000396185	-0.0169687	297.336
693.0000	1.23072	-0.000399635	-0.0149567	296.951
692.5000	0.957961	-0.000403846	-0.0128701	296.596
692.0000	0.849966	-0.000392577	-0.010898	296.271
691.5000	0.956269	-0.000398134	-0.00858556	295.987
691.0000	1.0769	-0.000406532	-0.00633408	295.716
690.5000	1.13429	-0.000410644	-0.00471777	295.49
690.0000	1.3364	-0.000424379	-0.00347272	295.277
689.5000	1.26833	-0.000421988	-0.00228498	295.081
689.0000	1.13341	-0.000436264	-0.000688467	294.907
688.5000	1.06161	-0.000447454	0.000751796	294.798
688.0000	1.0532	-0.000434744	0.00266846	294.761
687.5000	1.00937	-0.000429599	0.00508809	294.819
687.0000	1.03691	-0.000426983	0.00754472	294.958
686.5000	0.98179	-0.000427687	0.00969006	295.157
686.0000	0.990574	-0.000445242	0.0107593	295.388
685.5000	1.00017	-0.000432602	0.010961	295.64
685.0000	0.737897	-0.000454087	0.0108207	295.896
684.5000	0.595901	-0.000465694	0.0101368	296.144
684.0000	0.780421	-0.000455058	0.00889179	296.376
683.5000	0.585891	-0.000455512	0.00797972	296.602
683.0000	0.632282	-0.000463343	0.00698943	296.834
682.5000	0.376474	-0.000456419	0.00650347	297.068
682.0000	0.763612	-0.000462017	0.00579103	297.318
681.5000	0.637808	-0.000469927	0.00571089	297.581
681.0000	0.807088	-0.000457399	0.00574809	297.867
680.5000	1.28428	-0.00044944	0.00592369	298.143
680.0000	1.17079	-0.0004508	0.00510047	298.393
679.5000	1.02967	-0.000462318	0.00390163	298.602
679.0000	0.984342	-0.000442161	0.00132142	298.726
678.5000	0.974461	-0.000437359	-0.0004635	298.791
678.0000	0.981043	-0.000429374	-0.00216688	298.824
677.5000	1.27588	-0.000418811	-0.00330539	298.82
677.0000	1.07784	-0.00040103	-0.00380526	298.803
676.5000	1.36314	-0.000380218	-0.00376853	298.767
676.0000	1.22305	-0.000369946	-0.00357451	298.743
675.5000	1.18032	-0.000371337	-0.00336581	298.719
675.0000	1.12096	-0.000367341	-0.00298306	298.698
674.5000	0.92971	-0.000377902	-0.00211333	298.692
674.0000	0.810989	-0.000348576	-0.00130916	298.683
673.5000	0.833272	-0.000330122	-0.000404397	298.683
673.0000	0.536592	-0.000314164	-0.000369557	298.695
672.5000	0.191341	-0.000317399	-0.000282081	298.723
672.0000	0.189741	-0.000302833	3.85625E-005	298.749
671.5000	0.23177	-0.000296962	0.000850516	298.779
671.0000	0.219085	-0.000327235	0.00175044	298.821
670.5000	0.21702	-0.000315905	0.00285931	298.865
670.0000	0.0601668	-0.000287863	0.0037454	298.91
669.5000	0.174596	-0.000293916	0.00408275	298.957
669.0000	0.0901515	-0.000296129	0.0045245	299.012
668.5000	0.178221	-0.000320673	0.00497573	299.072
668.0000	0.180974	-0.00033619	0.00524834	299.147
667.5000	0.522017	-0.000341219	0.00548861	299.235
667.0000	0.408748	-0.000325399	0.0054806	299.328
666.5000	0.509465	-0.000325743	0.0054545	299.417
666.0000	0.41869	-0.00032152	0.0047275	299.516
665.5000	0.422763	-0.000351655	0.00454679	299.626
665.0000	0.456326	-0.000361915	0.00511249	299.732
664.5000	0.65212	-0.000358725	0.00589925	299.829
664.0000	0.597776	-0.000371089	0.00599862	299.926
663.5000	0.509278	-0.000374849	0.00511422	300.023
663.0000	0.776281	-0.000365999	0.00489716	300.103
662.5000	0.951685	-0.00034494	0.00467339	300.187
662.0000	1.08791	-0.000366716	0.00434332	300.257
661.5000	0.972907	-0.000354177	0.00456951	300.317
661.0000	1.06538	-0.000356933	0.00437622	300.363
660.5000	0.926741	-0.000347812	0.00404673	300.404
660.0000	1.1117	-0.000339722	0.00386596	300.426
659.5000	0.905214	-0.000312146	0.00319241	300.432
659.0000	0.913503	-0.000335814	0.00265487	300.415
658.5000	0.836977	-0.000335512	0.00231826	300.383
658.0000	0.846131	-0.000324759	0.00233842	300.334
657.5000	1.05917	-0.000309256	0.00168978	300.256
657.0000	1.06517	-0.000308576	0.00205586	300.171
656.5000	1.04159	-0.000306386	0.00115981	300.05
656.0000	1.21564	-0.000299939	0.000492344	299.927
655.5000	1.30695	-0.000296741	0.00105701	299.77
655.0000	1.02595	-0.00027875	0.000826513	299.589
654.5000	1.14564	-0.000282897	-1.12465E-005	299.4
654.0000	0.930586	-0.000289611	-0.000120981	299.202
653.5000	1.0304	-0.000293279	0.000365274	299.003
653.0000	1.2313	-0.000279046	0.00117762	298.814
652.5000	1.14996	-0.00026918	0.00192037	298.646
652.0000	1.40977	-0.000260898	0.00275276	298.496
651.5000	1.38571	-0.000261035	0.00411416	298.377
651.0000	1.34454	-0.000260003	0.00606902	298.298
650.5000	1.37454	-0.000246344	0.00732374	298.25
650.0000	1.56715	-0.000241085	0.00895164	298.221
649.5000	1.57951	-0.000230864	0.0100715	298.22
649.0000	1.61458	-0.000211266	0.0114456	298.241
648.5000	1.76915	-0.000222497	0.0119766	298.293
648.0000	2.07298	-0.000222683	0.0129789	298.38
647.5000	2.06538	-0.000207732	0.0138078	298.476
647.0000	1.99413	-0.000206676	0.0143182	298.614
646.5000	2.03149	-0.00022257	0.0147642	298.767
646.0000	2.12265	-0.000225927	0.0160704	298.92
645.5000	2.24512	-0.000215491	0.0165231	299.064
645.0000	2.19999	-0.000212562	0.0159634	299.208
644.5000	2.0912	-0.000216795	0.015808	299.343
644.0000	1.99633	-0.000222044	0.0157	299.446
643.5000	2.03933	-0.000245906	0.0152971	299.532
643.0000	2.34223	-0.000243886	0.014773	299.579
642.5000	2.50477	-0.000243236	0.0143845	299.61
642.0000	2.66566	-0.000224194	0.0141095	299.615
641.5000	2.66698	-0.000232219	0.013757	299.605
641.0000	2.45805	-0.00025964	0.0136356	299.571
640.5000	2.35901	-0.000253556	0.0139809	299.529
640.0000	2.14148	-0.000242016	0.0145412	299.475
639.5000	2.10571	-0.000248385	0.0153798	299.405
639.0000	1.97054	-0.000255353	0.0158718	299.318
638.5000	2.11449	-0.00025158	0.0167658	299.216
638.0000	2.1784	-0.00024173	0.0172967	299.133
637.5000	2.1364	-0.000236321	0.0175466	299.042
637.0000	2.05148	-0.00023361	0.0187845	298.959
636.5000	2.13617	-0.000239217	0.0195789	298.863
636.0000	2.26548	-0.000255215	0.0197638	298.776
635.5000	2.32446	-0.000238954	0.0200748	298.693
635.0000	2.13941	-0.000234735	0.0209423	298.627
634.5000	1.87123	-0.000243261	0.0216529	298.56
634.0000	1.60752	-0.000255335	0.0223895	298.506
633.5000	1.62682	-0.000261975	0.0227712	298.458
633.0000	1.48466	-0.000271948	0.0237161	298.416
632.5000	1.49502	-0.00027421	0.0238665	298.36
632.0000	1.79424	-0.000252382	0.0240957	298.312
631.5000	2.00155	-0.000247824	0.0246057	298.263
631.0000	2.05176	-0.000236144	0.0252046	298.227
630.5000	1.99372	-0.000224135	0.025858	298.198
630.0000	1.86567	-0.00020902	0.0265612	298.166
629.5000	1.99144	-0.000212644	0.0273125	298.124
629.0000	1.97323	-0.000207108	0.0278954	298.091
628.5000	2.16314	-0.000196284	0.0281456	298.044
628.0000	2.35976	-0.00016331	0.0287495	298.005
627.5000	1.97326	-0.000145769	0.029638	297.96
627.0000	1.83381	-0.00015667	0.029984	297.912
626.5000	1.81872	-0.000145557	0.0299856	297.862
626.0000	1.81411	-0.000145346	0.0301724	297.82
625.5000	1.89083	-0.000131173	0.0308923	297.771
625.0000	2.07284	-0.000131071	0.0317418	297.727
624.5000	2.15225	-0.000125964	0.0326408	297.69
624.0000	1.95531	-0.000116091	0.0335654	297.677
623.5000	1.96259	-0.000107736	0.0344242	297.661
623.0000	1.74275	-0.000110123	0.0353802	297.67
622.5000	1.74831	-0.000105793	0.0362958	297.674
622.0000	1.64611	-0.000117881	0.0369994	297.693
621.5000	1.71388	-0.000124168	0.0377653	297.724
621.0000	1.78696	-0.00011499	0.0385065	297.758
620.5000	1.64509	-0.000122129	0.0389763	297.802
620.0000	1.45433	-0.000131833	0.0394597	297.87
619.5000	1.29175	-0.000151134	0.0402867	297.961
619.0000	1.50901	-0.00015967	0.0416944	298.081
618.5000	1.52581	-0.000169171	0.0434843	298.212
618.0000	1.45647	-0.000169261	0.0452571	298.344
617.5000	1.5396	-0.000167627	0.0458919	298.47
617.0000	1.34946	-0.000155817	0.0463986	298.616
616.5000	1.5249	-0.00014999	0.0470499	298.771
616.0000	1.70161	-0.000147195	0.0480466	298.916
615.5000	1.87695	-0.000149706	0.0485565	299.053
615.0000	1.93767	-0.00014763	0.0490382	299.196
614.5000	2.23067	-0.000129842	0.0493019	299.334
614.0000	2.18217	-0.00012948	0.0495681	299.47
613.5000	2.20161	-0.000141326	0.0501064	299.61
613.0000	2.01089	-0.000123678	0.0506787	299.768
612.5000	2.10729	-0.000116749	0.051214	299.914
612.0000	2.29289	-9.34419E-005	0.0518631	300.059
611.5000	2.02834	-9.64482E-005	0.0527343	300.196
611.0000	1.9598	-0.000110846	0.0531271	300.336
610.5000	2.23392	-9.85409E-005	0.0535335	300.485
610.0000	2.52517	-9.46456E-005	0.0535684	300.605
609.5000	2.44885	-8.69425E-005	0.0542916	300.73
609.0000	2.44763	-7.76466E-005	0.0549789	300.848
608.5000	2.40058	-8.34462E-005	0.0559823	300.961
608.0000	2.18678	-8.35786E-005	0.0566013	301.068
607.5000	2.15674	-0.000108992	0.0567681	301.17
607.0000	2.00736	-0.000113678	0.0575345	301.295
606.5000	1.78034	-0.000124587	0.0582911	301.406
606.0000	1.85594	-0.000123835	0.0597434	301.517
605.5000	1.60209	-0.000124063	0.0607527	301.614
605.0000	1.69271	-0.000130135	0.062059	301.706
604.5000	1.79855	-0.00012319	0.0631733	301.801
604.0000	1.56053	-0.000118455	0.064578	301.897
603.5000	1.50461	-0.00012373	0.0660204	301.98
603.0000	1.74265	-0.000105992	0.0669727	302.056
602.5000	1.80871	-0.000106264	0.0682584	302.117
602.0000	1.7912	-0.000102689	0.0697857	302.185
601.5000	1.47932	-0.000115934	0.0711945	302.254
601.0000	1.5755	-0.00012207	0.0726927	302.33
600.5000	1.63869	-0.000121461	0.074746	302.407
600.0000	1.53832	-0.000112507	0.0762921	302.46
599.5000	1.61337	-8.8837E-005	0.0786733	302.507
599.0000	1.69831	-7.62664E-005	0.0805117	302.537
598.5000	1.66285	-7.12399E-005	0.0829177	302.563
598.0000	1.59159	-5.85838E-005	0.0849267	302.591
597.5000	1.50951	-4.76108E-005	0.0868022	302.624
597.0000	1.65738	-5.2598E-005	0.0889322	302.652
596.5000	1.55542	-6.5801E-005	0.0911183	302.662
596.0000	1.62343	-6.21935E-005	0.0934386	302.678
595.5000	1.62664	-7.62634E-005	0.095593	302.694
595.0000	1.40492	-8.06115E-005	0.0981366	302.709
594.5000	1.33981	-8.47913E-005	0.10083	302.738
594.0000	1.37638	-8.12968E-005	0.102917	302.761
593.5000	1.32792	-7.86612E-005	0.105562	302.783
593.0000	1.35466	-7.59765E-005	0.108525	302.803
592.5000	1.39441	-6.53382E-005	0.111106	302.852
592.0000	1.57201	-6.31358E-005	0.113742	302.929
591.5000	1.24862	-7.24623E-005	0.115885	302.988
591.0000	0.990667	-7.22178E-005	0.118757	303.071
590.5000	1.01011	-7.9585E-005	0.121371	303.171
590.0000	1.1432	-8.59156E-005	0.124151	303.277
589.5000	1.15605	-0.000100891	0.127263	303.4
589.0000	0.948095	-9.42714E-005	0.130431	303.534
588.5000	0.891185	-8.88972E-005	0.133619	303.694
588.0000	0.905169	-8.2475E-005	0.137158	303.872
587.5000	0.650051	-9.24813E-005	0.14084	304.08
587.0000	0.873842	-9.15446E-005	0.14454	304.327
586.5000	0.544948	-8.32327E-005	0.148172	304.575
586.0000	0.192692	-7.79096E-005	0.152479	304.839
585.5000	0.0520721	-7.68714E-005	0.156349	305.113
585.0000	-0.0759272	-6.36901E-005	0.160324	305.412
584.5000	-0.271854	-5.98943E-005	0.164187	305.703
584.0000	-0.663494	-5.7061E-005	0.168664	306.028
583.5000	-0.930891	-6.0927E-005	0.173332	306.369
583.0000	-1.0427	-5.82624E-005	0.178855	306.771
582.5000	-1.39194	-6.70361E-005	0.183952	307.172
582.0000	-1.73156	-7.05725E-005	0.189309	307.595
581.5000	-2.18804	-4.46811E-005	0.195059	308.06
581.0000	-2.68979	-4.75477E-005	0.201378	308.556
580.5000	-2.86886	-3.96878E-005	0.20777	309.066
580.0000	-3.29805	-6.06611E-005	0.214009	309.58
579.5000	-3.58418	-6.10767E-005	0.220218	310.106
579.0000	-4.14447	-2.98736E-005	0.226725	310.651
578.5000	-4.51418	-3.50086E-005	0.233828	311.213
578.0000	-4.40934	-6.98371E-006	0.240962	311.81
577.5000	-4.82728	6.38261E-006	0.248173	312.472
577.0000	-5.20185	1.16339E-005	0.256144	313.122
576.5000	-5.74768	-4.21885E-006	0.264954	313.85
576.0000	-6.27407	-1.60104E-006	0.273551	314.565
575.5000	-6.92816	-1.30381E-005	0.282796	315.329
575.0000	-7.66995	5.34542E-006	0.291027	316.052
574.5000	-8.03579	3.27279E-005	0.300375	316.855
574.0000	-8.67003	3.32555E-005	0.309949	317.653
573.5000	-9.19067	4.66307E-005	0.319615	318.473
573.0000	-9.73604	3.8598E-005	0.329466	319.359
572.5000	-9.98956	4.40623E-005	0.3389	320.215
572.0000	-10.8372	3.62308E-005	0.349394	321.183
571.5000	-11.3393	4.0447E-005	0.360007	322.143
571.0000	-11.9344	3.40661E-005	0.371895	323.173
570.5000	-12.6081	5.37367E-005	0.383356	324.217
570.0000	-13.3608	4.55723E-005	0.394442	325.239
569.5000	-14.0458	3.11536E-005	0.406763	326.323
569.0000	-14.9214	1.67058E-005	0.419113	327.408
568.5000	-15.8394	1.95344E-005	0.430523	328.469
568.0000	-16.2711	1.79756E-005	0.441973	329.563
567.5000	-16.91	2.36284E-005	0.453594	330.67
567.0000	-17.3153	6.69168E-006	0.465136	331.733
566.5000	-17.7644	-1.63146E-005	0.476563	332.77
566.0000	-18.3287	-3.02205E-005	0.487885	333.797
565.5000	-18.4928	-4.15216E-005	0.498748	334.815
565.0000	-18.7729	-3.65186E-005	0.50959	335.799
564.5000	-19.3819	-5.91365E-005	0.520352	336.77
564.0000	-19.8003	-4.63362E-005	0.530516	337.653
563.5000	-20.0879	-3.63023E-005	0.539854	338.487
563.0000	-20.4985	-3.99078E-005	0.549101	339.342
562.5000	-20.8266	-5.58437E-005	0.557702	340.111
562.0000	-20.7072	-5.7457E-005	0.566116	340.858
561.5000	-21.0407	-8.00048E-005	0.57521	341.624
561.0000	-21.0989	-8.1803E-005	0.583393	342.34
560.5000	-20.8557	-8.11749E-005	0.590852	342.992
560.0000	-20.8116	-8.82464E-005	0.598166	343.602
559.5000	-20.7473	-9.99129E-005	0.605116	344.129
559.0000	-20.1322	-8.77472E-005	0.610925	344.563
558.5000	-19.7074	-0.000102917	0.615907	344.949
558.0000	-19.2949	-9.74472E-005	0.619963	345.248
557.5000	-18.7118	-9.93219E-005	0.623906	345.502
557.0000	-18.6027	-0.000121836	0.627318	345.686
556.5000	-18.2639	-0.000100726	0.629732	345.814
556.0000	-18.0166	-0.000105061	0.631242	345.902
555.5000	-17.3372	-0.000119366	0.632628	345.941
555.0000	-16.8422	-0.000129717	0.63366	345.922
554.5000	-16.2838	-0.000141956	0.634595	345.853
554.0000	-15.7941	-0.000143113	0.634513	345.736
553.5000	-15.4215	-0.000165356	0.633819	345.554
553.0000	-15.0258	-0.000149758	0.632855	345.353
552.5000	-14.7737	-0.000168483	0.632162	345.128
552.0000	-14.3598	-0.000199152	0.630831	344.83
551.5000	-13.9668	-0.00020407	0.629385	344.534
551.0000	-13.5732	-0.000218787	0.627297	344.214
550.5000	-13.4877	-0.000235892	0.625086	343.864
550.0000	-13.3939	-0.000214499	0.622821	343.48
549.5000	-13.4508	-0.000226564	0.620747	343.097
549.0000	-12.9578	-0.000225217	0.618036	342.71
548.5000	-12.6896	-0.000233852	0.615389	342.342
548.0000	-12.623	-0.000249059	0.613619	341.942
547.5000	-12.4978	-0.000252976	0.611881	341.569
547.0000	-12.2705	-0.000239334	0.610142	341.176
546.5000	-12.1162	-0.000242976	0.608073	340.814
546.0000	-12.0028	-0.000230983	0.605568	340.478
545.5000	-11.9691	-0.000215951	0.604162	340.146
545.0000	-11.8859	-0.000203353	0.602873	339.874
544.5000	-11.6859	-0.000207805	0.601556	339.587
544.0000	-11.4821	-0.000206402	0.600078	339.33
543.5000	-11.5874	-0.000190177	0.599172	339.12
543.0000	-11.8408	-0.00018171	0.598578	338.927
542.5000	-11.9327	-0.000165082	0.598487	338.756
542.0000	-12.0423	-0.000143135	0.598353	338.615
541.5000	-12.1754	-0.000160626	0.598516	338.525
541.0000	-12.213	-0.00016541	0.598688	338.459
540.5000	-12.2856	-0.000179184	0.599774	338.413
540.0000	-12.2053	-0.000186918	0.601085	338.375
539.5000	-12.7197	-0.000191678	0.602397	338.39
539.0000	-13.137	-0.000190841	0.603729	338.444
538.5000	-13.4072	-0.000178209	0.605707	338.544
538.0000	-13.4714	-0.000163997	0.608055	338.638
537.5000	-13.6109	-0.000172932	0.610777	338.783
537.0000	-13.8289	-0.000179817	0.613586	338.96
536.5000	-14.1965	-0.000182767	0.616724	339.155
536.0000	-14.4786	-0.000191541	0.620508	339.4
535.5000	-14.7396	-0.000181669	0.624393	339.665
535.0000	-14.9082	-0.000163674	0.628711	339.956
534.5000	-15.1994	-0.000151302	0.632828	340.239
534.0000	-15.0356	-0.000149617	0.637296	340.562
533.5000	-15.1519	-0.000160633	0.641795	340.911
533.0000	-15.4066	-0.000178633	0.646111	341.252
532.5000	-15.6148	-0.000182744	0.650752	341.634
532.0000	-15.6358	-0.000161071	0.655923	342.058
531.5000	-15.3033	-0.000154615	0.661325	342.492
531.0000	-15.5492	-0.000179715	0.667479	342.941
530.5000	-15.4307	-0.000193355	0.673162	343.383
530.0000	-15.653	-0.000231422	0.679052	343.865
529.5000	-15.6928	-0.000251709	0.684881	344.341
529.0000	-16.0112	-0.000260182	0.690511	344.767
528.5000	-15.9218	-0.000256615	0.69603	345.206
528.0000	-15.7764	-0.000247653	0.701414	345.634
527.5000	-15.7155	-0.000259936	0.706946	346.05
527.0000	-15.7834	-0.000300847	0.712996	346.507
526.5000	-15.5371	-0.000312303	0.718433	346.938
526.0000	-14.9658	-0.000347239	0.724428	347.394
525.5000	-15.0549	-0.000343353	0.730248	347.831
525.0000	-14.6044	-0.000321624	0.735912	348.257
524.5000	-14.1701	-0.000298071	0.741272	348.638
524.0000	-14.0266	-0.000316276	0.746101	348.97
523.5000	-14.0661	-0.000320705	0.750664	349.308
523.0000	-13.6639	-0.000318126	0.75502	349.624
522.5000	-13.4355	-0.0003175	0.758962	349.925
522.0000	-12.6196	-0.000306987	0.76323	350.231
521.5000	-11.9999	-0.000301825	0.767505	350.514
521.0000	-11.3615	-0.000298804	0.771304	350.767
520.5000	-10.6812	-0.000312712	0.77511	351.023
520.0000	-10.1782	-0.000340514	0.778432	351.239
519.5000	-9.76617	-0.000356167	0.781964	351.447
519.0000	-9.27584	-0.000350169	0.785192	351.652
518.5000	-8.88487	-0.000336155	0.787866	351.832
518.0000	-8.28937	-0.000352583	0.790867	352.01
517.5000	-7.85007	-0.000349225	0.793833	352.176
517.0000	-7.13102	-0.000388475	0.79699	352.338
516.5000	-7.08178	-0.000411658	0.800194	352.501
516.0000	-6.63532	-0.000440887	0.803276	352.674
515.5000	-6.26031	-0.000464125	0.805849	352.842
515.0000	-5.83612	-0.000503746	0.808336	352.991
514.5000	-5.33116	-0.000499153	0.810696	353.14
514.0000	-5.08776	-0.000524018	0.81288	353.261
513.5000	-4.58391	-0.000540007	0.815296	353.397
513.0000	-4.42122	-0.000579821	0.817358	353.534
512.5000	-4.21694	-0.000583385	0.819965	353.702
512.0000	-4.01889	-0.000575245	0.822469	353.853
511.5000	-3.4364	-0.000590448	0.824683	354.013
511.0000	-3.36233	-0.000598052	0.826769	354.141
510.5000	-3.09341	-0.00062705	0.829079	354.266
510.0000	-2.99651	-0.000617696	0.831228	354.377
509.5000	-3.03251	-0.000638139	0.833404	354.507
509.0000	-2.75804	-0.00065776	0.83529	354.62
508.5000	-2.44266	-0.000675004	0.83692	354.695
508.0000	-2.08528	-0.000646046	0.838705	354.751
507.5000	-1.64619	-0.000658451	0.840442	354.794
507.0000	-1.54779	-0.000655553	0.842399	354.854
506.5000	-1.17296	-0.000670454	0.844142	354.895
506.0000	-1.10455	-0.000690139	0.845612	354.952
505.5000	-1.06048	-0.000687483	0.846973	354.995
505.0000	-0.818963	-0.000683924	0.848255	355.02
504.5000	-0.404607	-0.000691964	0.849607	355.04
504.0000	-0.0840084	-0.000702598	0.850587	355.025
503.5000	0.247019	-0.000726626	0.851308	354.989
503.0000	0.486243	-0.000728378	0.851849	354.915
502.5000	0.945907	-0.000743947	0.851985	354.818
502.0000	1.391	-0.000765504	0.852114	354.728
501.5000	1.70863	-0.000782669	0.852084	354.6
501.0000	1.92012	-0.000778121	0.851957	354.45
500.5000	2.17439	-0.000782305	0.851706	354.26
500.0000	2.53019	-0.000801056	0.851236	354.029
499.5000	2.62945	-0.000827323	0.849994	353.741
499.0000	2.80014	-0.000836681	0.84832	353.333
498.5000	3.27552	-0.000842123	0.846415	352.819
498.0000	3.3526	-0.000843952	0.844298	352.193
497.5000	3.66592	-0.000868178	0.842105	351.392
497.0000	3.97871	-0.000897224	0.840316	350.539
496.5000	4.38211	-0.000894566	0.838603	349.622
496.0000	4.56128	-0.00092401	0.837708	348.849
495.5000	4.70679	-0.000921764	0.837069	348.237
495.0000	5.25963	-0.000933066	0.835835	347.783
494.5000	5.26166	-0.00094305	0.83408	347.381
494.0000	5.6824	-0.000973519	0.832231	347.015
493.5000	6.25892	-0.000960458	0.829964	346.605
493.0000	6.53279	-0.000979571	0.827933	346.233
492.5000	6.69378	-0.000995986	0.825703	345.841
492.0000	7.24179	-0.00101387	0.823246	345.442
491.5000	7.43689	-0.00102866	0.820739	345.082
491.0000	7.97709	-0.00103298	0.818506	344.751
490.5000	8.15103	-0.00104867	0.816215	344.453
490.0000	8.62321	-0.00108059	0.813826	344.196
489.5000	9.15194	-0.00109734	0.811408	343.999
489.0000	9.36079	-0.00109046	0.808771	343.807
488.5000	9.66529	-0.00110483	0.805768	343.592
488.0000	9.78712	-0.00112536	0.801863	343.211
487.5000	9.98609	-0.00113269	0.797382	342.608
487.0000	10.2123	-0.00113415	0.793758	341.899
486.5000	10.4602	-0.00112862	0.78982	341.035
486.0000	10.7827	-0.00113119	0.786091	340.145
485.5000	10.8841	-0.0011327	0.783318	339.241
485.0000	11.1743	-0.00115763	0.781135	338.401
484.5000	11.5433	-0.00116478	0.778746	337.721
484.0000	11.6945	-0.00116223	0.775915	337.13
483.5000	11.5487	-0.00117032	0.77315	336.633
483.0000	11.7104	-0.0011784	0.769696	336.147
482.5000	12.0094	-0.00121667	0.765981	335.721
482.0000	12.3266	-0.00121025	0.762099	335.337
481.5000	12.4319	-0.0012094	0.758322	334.961
481.0000	12.4202	-0.00122849	0.754834	334.622
480.5000	12.4113	-0.00124891	0.751189	334.313
480.0000	12.3862	-0.00123309	0.747149	334.005
479.5000	12.6923	-0.00124458	0.743026	333.698
479.0000	12.8989	-0.00126886	0.737651	333.294
478.5000	12.8404	-0.00126806	0.731846	332.666
478.0000	12.9715	-0.00128721	0.726781	331.767
477.5000	12.9189	-0.00128389	0.724029	330.941
477.0000	12.8838	-0.00127718	0.721532	330.322
476.5000	12.8254	-0.00126541	0.7165	329.71
476.0000	13.2374	-0.00128202	0.710262	328.919
475.5000	13.3827	-0.00128011	0.703652	327.891
475.0000	13.7228	-0.00131399	0.696988	326.653
474.5000	13.9317	-0.00131122	0.691295	325.338
474.0000	13.8133	-0.00129156	0.686192	323.912
473.5000	13.4537	-0.00131221	0.680565	322.264
473.0000	13.4732	-0.00129448	0.674858	320.458
472.5000	13.5371	-0.00128328	0.669881	318.508
472.0000	13.8076	-0.00126095	0.666903	316.836
471.5000	13.6324	-0.00126461	0.664436	315.477
471.0000	13.534	-0.00125852	0.662341	314.658
470.5000	13.5147	-0.00125352	0.659952	314.102
470.0000	13.2084	-0.00126849	0.657276	313.886
469.5000	13.1795	-0.00127927	0.652608	313.767
469.0000	13.0882	-0.00128279	0.644587	313.359
468.5000	13.1376	-0.00129506	0.636387	312.542
468.0000	12.8341	-0.00129577	0.63014	311.594
467.5000	12.4686	-0.00128758	0.625325	310.755
467.0000	12.1593	-0.00126231	0.621598	310.117
466.5000	11.9158	-0.00124888	0.618486	309.701
466.0000	11.915	-0.00125519	0.614561	309.464
465.5000	11.8882	-0.00125302	0.610084	309.418
465.0000	11.9211	-0.00122944	0.605257	309.638
464.5000	11.6485	-0.00121458	0.599172	310.031
464.0000	11.2764	-0.00122043	0.591349	310.331
463.5000	10.9326	-0.00121579	0.58231	310.314
463.0000	10.7772	-0.00120084	0.573479	309.96
462.5000	10.6665	-0.00121185	0.566016	309.426
462.0000	10.4195	-0.00117468	0.559555	308.825
461.5000	10.4058	-0.00115498	0.55379	308.314
461.0000	10.4394	-0.00113639	0.548166	307.926
460.5000	10.3527	-0.00112354	0.542139	307.65
460.0000	10.2348	-0.00110773	0.536361	307.481
459.5000	10.1193	-0.001106	0.530288	307.374
459.0000	10.1225	-0.00109085	0.523303	307.226
458.5000	9.97087	-0.00109694	0.51589	306.995
458.0000	9.65783	-0.00108403	0.508055	306.619
457.5000	9.49389	-0.00108077	0.500144	306.033
457.0000	9.35631	-0.00108227	0.492529	305.25
456.5000	9.14789	-0.00106794	0.486125	304.46
456.0000	9.00109	-0.00105179	0.479714	303.782
455.5000	9.06664	-0.00105843	0.471646	302.973
455.0000	9.01415	-0.00103324	0.463929	302.019
454.5000	8.92712	-0.00102155	0.457729	301.076
454.0000	8.70596	-0.00101426	0.452312	300.378
453.5000	8.83373	-0.00101218	0.446043	299.898
453.0000	8.55553	-0.00100805	0.439182	299.431
452.5000	8.28436	-0.00100168	0.432492	298.938
452.0000	7.87424	-0.000992987	0.425994	298.402
451.5000	7.77055	-0.000983669	0.41907	297.831
451.0000	7.79728	-0.000973302	0.412548	297.288
450.5000	7.29498	-0.000964643	0.4058	296.709
450.0000	7.12291	-0.000939579	0.399736	296.146
449.5000	7.14669	-0.000911157	0.394353	295.68
449.0000	7.09797	-0.00089723	0.38947	295.382
448.5000	6.8069	-0.000883381	0.383474	295.126
448.0000	6.91416	-0.000865814	0.376942	294.761
447.5000	6.85064	-0.00085752	0.37134	294.353
447.0000	6.60851	-0.0008506	0.367321	294.154
446.5000	6.3755	-0.000845781	0.363074	294.152
446.0000	6.17395	-0.000824193	0.356481	294.062
445.5000	6.07068	-0.000801335	0.349666	293.684
445.0000	5.63785	-0.000790808	0.343707	293.116
444.5000	5.57001	-0.000782779	0.338153	292.509
444.0000	5.57589	-0.000780869	0.332713	291.888
443.5000	5.46109	-0.00076424	0.327149	291.187
443.0000	5.22034	-0.000749098	0.322628	290.571
442.5000	5.01659	-0.000730825	0.318103	289.963
442.0000	5.22096	-0.000720572	0.31388	289.454
441.5000	5.15981	-0.000725192	0.30916	288.931
441.0000	5.03964	-0.000709677	0.304811	288.46
440.5000	4.80132	-0.000691609	0.300557	288.001
440.0000	4.76887	-0.000691456	0.296087	287.526
439.5000	4.61007	-0.000673747	0.291469	287.045
439.0000	4.55113	-0.0006609	0.286456	286.535
438.5000	4.5468	-0.000632214	0.281205	286.024
438.0000	4.43864	-0.000610518	0.275878	285.525
437.5000	4.51559	-0.000617342	0.27095	285.055
437.0000	4.60492	-0.000610968	0.265598	284.564
436.5000	4.50186	-0.000593779	0.261345	284.14
436.0000	4.57454	-0.000555046	0.257407	283.762
435.5000	4.52602	-0.000542728	0.252944	283.401
435.0000	4.44341	-0.000527177	0.248376	283.067
434.5000	4.45964	-0.000504673	0.24393	282.746
434.0000	4.39559	-0.000495131	0.239587	282.401
433.5000	4.16972	-0.000471488	0.235539	282.055
433.0000	4.03736	-0.000462376	0.23148	281.657
432.5000	3.91198	-0.000451731	0.227582	281.268
432.0000	3.94403	-0.000437632	0.223365	280.856
431.5000	3.80296	-0.000447161	0.219264	280.444
431.0000	3.75591	-0.000444274	0.215447	280.045
430.5000	3.45288	-0.000429998	0.211835	279.653
430.0000	3.29814	-0.00042359	0.208503	279.273
429.5000	3.02699	-0.000406613	0.204839	278.867
429.0000	2.971	-0.000405461	0.201235	278.462
428.5000	2.97163	-0.000403617	0.197539	278.058
428.0000	2.87447	-0.000410399	0.19366	277.662
427.5000	2.72246	-0.000413954	0.190475	277.308
427.0000	2.56477	-0.000399945	0.187463	276.959
426.5000	2.44498	-0.000390264	0.184425	276.599
426.0000	2.29779	-0.000375889	0.181361	276.218
425.5000	2.33624	-0.000378152	0.178429	275.81
425.0000	2.19135	-0.000394867	0.175213	275.368
424.5000	2.14309	-0.000392796	0.172108	274.904
424.0000	2.09054	-0.000386593	0.16921	274.442
423.5000	2.05743	-0.000381628	0.166937	274.038
423.0000	1.9946	-0.000370384	0.164511	273.686
422.5000	1.78435	-0.00036811	0.162083	273.39
422.0000	1.9433	-0.000375099	0.1592	273.084
421.5000	2.07903	-0.000367621	0.156512	272.803
421.0000	2.21865	-0.000369411	0.154192	272.551
420.5000	2.27808	-0.000348955	0.151656	272.284
420.0000	2.24654	-0.000334572	0.149357	272.022
419.5000	2.21372	-0.000323425	0.147075	271.744
419.0000	2.16898	-0.000318917	0.14481	271.479
418.5000	2.30355	-0.000320035	0.142543	271.248
418.0000	2.12386	-0.000316953	0.140494	271.015
417.5000	2.25519	-0.000307418	0.138199	270.779
417.0000	2.13347	-0.000302767	0.136328	270.566
416.5000	2.30835	-0.000298741	0.134988	270.436
416.0000	2.22434	-0.00029772	0.133363	270.343
415.5000	2.34655	-0.000283874	0.131465	270.24
415.0000	2.29621	-0.000280618	0.12944	270.091
414.5000	2.30182	-0.000275053	0.127585	269.883
414.0000	2.36105	-0.000258582	0.126274	269.682
413.5000	2.2779	-0.000245042	0.125154	269.48
413.0000	1.9146	-0.000235169	0.124013	269.29
412.5000	1.84267	-0.000231623	0.122958	269.13
412.0000	1.77546	-0.000218582	0.121931	268.982
411.5000	1.80299	-0.000214342	0.120548	268.826
411.0000	1.80943	-0.000210291	0.119305	268.687
410.5000	1.84938	-0.000213575	0.11842	268.571
410.0000	1.61848	-0.000209476	0.117599	268.461
409.5000	1.63707	-0.000193544	0.116943	268.377
409.0000	1.45255	-0.000193604	0.116284	268.311
408.5000	1.61383	-0.000179831	0.115488	268.26
408.0000	1.49016	-0.000173497	0.114361	268.195
407.5000	1.60203	-0.000173798	0.113283	268.127
407.0000	1.64494	-0.000177651	0.112376	268.048
406.5000	1.50523	-0.000178684	0.11166	267.972
406.0000	1.69876	-0.000171843	0.110972	267.893
405.5000	1.71108	-0.000173964	0.110075	267.802
405.0000	1.66415	-0.000183635	0.109186	267.69
404.5000	1.84078	-0.000176692	0.108543	267.578
404.0000	1.71061	-0.000175858	0.108171	267.437
403.5000	1.64098	-0.000167256	0.107919	267.282
403.0000	1.57934	-0.000168935	0.107972	267.11
402.5000	1.74465	-0.000154207	0.107546	266.913
402.0000	1.72904	-0.000153442	0.107571	266.727
401.5000	1.98041	-0.000147146	0.107573	266.509
401.0000	1.96372	-0.000153195	0.107425	266.317
400.5000	1.97062	-0.000149636	0.107352	266.143
400.0000	1.88761	-0.00015358	0.107141	265.99
399.5000	1.86842	-0.000150488	0.107571	265.857
399.0000	1.79489	-0.000136263	0.108059	265.762
398.5000	1.74702	-0.000140987	0.108212	265.671
398.0000	1.63332	-0.000142847	0.108331	265.602
397.5000	1.43783	-0.000147002	0.108519	265.564
397.0000	1.3628	-0.000147392	0.108971	265.546
396.5000	1.41444	-0.000149665	0.109178	265.554
396.0000	1.40539	-0.000159226	0.109462	265.586
395.5000	1.35089	-0.000168655	0.109386	265.644
395.0000	1.1749	-0.000177438	0.109482	265.732
394.5000	1.1552	-0.00018311	0.109714	265.846
394.0000	0.937644	-0.000193654	0.110006	265.987
393.5000	0.856154	-0.000188027	0.110093	266.153
393.0000	0.855277	-0.000203901	0.110124	266.34
392.5000	1.00279	-0.000190225	0.110265	266.512
392.0000	0.929439	-0.000190676	0.110629	266.669
391.5000	0.931825	-0.000189277	0.111164	266.807
391.0000	0.782243	-0.000194117	0.11144	266.923
390.5000	0.712316	-0.000198451	0.11148	267.031
390.0000	0.800086	-0.000181829	0.111755	267.148
389.5000	0.93663	-0.000179643	0.112282	267.249
389.0000	0.957447	-0.000185984	0.112919	267.339
388.5000	1.0198	-0.000180572	0.11335	267.426
388.0000	1.09169	-0.000171084	0.113641	267.508
387.5000	1.07938	-0.000173373	0.114128	267.576
387.0000	1.18329	-0.000174716	0.115236	267.654
386.5000	1.13671	-0.000161372	0.116033	267.714
386.0000	1.11978	-0.000160898	0.116998	267.774
385.5000	1.17957	-0.000173906	0.117792	267.815
385.0000	1.22598	-0.000180978	0.118698	267.859
384.5000	1.10013	-0.000191713	0.119651	267.905
384.0000	0.935849	-0.000190606	0.120646	267.944
383.5000	1.01176	-0.000191435	0.121524	267.995
383.0000	1.1676	-0.00019422	0.122252	268.046
382.5000	1.28169	-0.000202301	0.123116	268.101
382.0000	1.18226	-0.000197876	0.124387	268.154
381.5000	1.18366	-0.000206013	0.125815	268.21
381.0000	1.09281	-0.000181215	0.126893	268.263
380.5000	1.05264	-0.000194121	0.127776	268.315
380.0000	1.04055	-0.000199674	0.128927	268.37
379.5000	0.918234	-0.000202833	0.130219	268.434
379.0000	0.736207	-0.000221111	0.13119	268.502
378.5000	0.70154	-0.00021489	0.131751	268.562
378.0000	0.730604	-0.000228349	0.132375	268.621
377.5000	0.79796	-0.000229251	0.133102	268.676
377.0000	0.785919	-0.000216849	0.133789	268.728
376.5000	0.619804	-0.000209418	0.13461	268.769
376.0000	0.518812	-0.000205451	0.135362	268.797
375.5000	0.629094	-0.000211893	0.135935	268.826
375.0000	0.638946	-0.000208886	0.136334	268.831
374.5000	0.306159	-0.000219909	0.13684	268.839
374.0000	0.253137	-0.000220407	0.13723	268.833
373.5000	0.3243	-0.000226665	0.137662	268.839
373.0000	0.239677	-0.000241647	0.137919	268.849
372.5000	0.258694	-0.000255085	0.138133	268.848
372.0000	0.310816	-0.000250103	0.138574	268.861
371.5000	0.308033	-0.000248952	0.1389	268.873
371.0000	0.290053	-0.000257934	0.139346	268.88
370.5000	0.453351	-0.000241433	0.139894	268.89
370.0000	0.50695	-0.000250281	0.140287	268.901
369.5000	0.546655	-0.00025161	0.1407	268.921
369.0000	0.62251	-0.00024816	0.141312	268.959
368.5000	0.600501	-0.000257874	0.141995	268.997
368.0000	0.689727	-0.000271566	0.142578	269.052
367.5000	0.709223	-0.000270524	0.143199	269.105
367.0000	0.871447	-0.000273854	0.144194	269.175
366.5000	0.937994	-0.000266523	0.14507	269.262
366.0000	0.936865	-0.000272048	0.145927	269.36
365.5000	0.933601	-0.000260603	0.146548	269.438
365.0000	0.997334	-0.000262092	0.147027	269.515
364.5000	1.01637	-0.000259306	0.147637	269.584
364.0000	1.01943	-0.000256946	0.148216	269.668
363.5000	1.00649	-0.000256436	0.149154	269.755
363.0000	1.11213	-0.000269716	0.150041	269.842
362.5000	1.14212	-0.000273766	0.150837	269.933
362.0000	1.16964	-0.000282281	0.151585	270.023
361.5000	1.15592	-0.000268901	0.152608	270.121
361.0000	1.06573	-0.000277131	0.153421	270.203
360.5000	0.889557	-0.000283711	0.153943	270.28
360.0000	1.13682	-0.000278218	0.154558	270.356
359.5000	1.08821	-0.000288039	0.155142	270.436
359.0000	1.05579	-0.0003036	0.155427	270.51
358.5000	0.97357	-0.000306743	0.155446	270.571
358.0000	0.962088	-0.000320771	0.155593	270.64
357.5000	1.00922	-0.000316504	0.15579	270.715
357.0000	1.16822	-0.000319304	0.156317	270.796
356.5000	1.15905	-0.000316467	0.157068	270.87
356.0000	1.22709	-0.000334039	0.157501	270.946
355.5000	1.19704	-0.000346926	0.157786	271.012
355.0000	1.17253	-0.00035226	0.15806	271.087
354.5000	1.14288	-0.000347369	0.158195	271.152
354.0000	1.26977	-0.000347051	0.158475	271.22
353.5000	1.31447	-0.000348534	0.158697	271.282
353.0000	1.26286	-0.000355102	0.15895	271.354
352.5000	1.24064	-0.000354001	0.159292	271.432
352.0000	1.45538	-0.000363695	0.159731	271.517
351.5000	1.41031	-0.000375521	0.160114	271.594
351.0000	1.47577	-0.000373327	0.160755	271.665
350.5000	1.50166	-0.00037071	0.161577	271.741
350.0000	1.48178	-0.000372677	0.162594	271.831
349.5000	1.55162	-0.000382487	0.163589	271.911
349.0000	1.46298	-0.00038632	0.164719	271.996
348.5000	1.3905	-0.000386618	0.165817	272.071
348.0000	1.40979	-0.00039012	0.166757	272.154
347.5000	1.37166	-0.000379891	0.167963	272.236
347.0000	1.33024	-0.000375479	0.169122	272.311
346.5000	1.14574	-0.000374984	0.170005	272.378
346.0000	1.22435	-0.000389087	0.170793	272.444
345.5000	1.11158	-0.000405336	0.171799	272.514
345.0000	1.16534	-0.000416053	0.172967	272.596
344.5000	1.25848	-0.000422131	0.173971	272.661
344.0000	1.27725	-0.000431684	0.175223	272.733
343.5000	1.28155	-0.000446523	0.176162	272.8
343.0000	1.28544	-0.00044907	0.177074	272.874
342.5000	1.30439	-0.000441729	0.177888	272.953
342.0000	1.2818	-0.000451519	0.178644	273.029
341.5000	1.22598	-0.00045981	0.179521	273.108
341.0000	1.39162	-0.00044664	0.180539	273.18
340.5000	1.54112	-0.00046579	0.181331	273.257
340.0000	1.3962	-0.000474787	0.182096	273.335
339.5000	1.40128	-0.000488877	0.18262	273.414
339.0000	1.50952	-0.000507604	0.183406	273.492
338.5000	1.56316	-0.000515965	0.184414	273.583
338.0000	1.56184	-0.000505924	0.18551	273.687
337.5000	1.60909	-0.000501169	0.186521	273.791
337.0000	1.64509	-0.000510337	0.187382	273.89
336.5000	1.52329	-0.000515879	0.188289	273.975
336.0000	1.7891	-0.000521851	0.189199	274.073
335.5000	1.88731	-0.00051355	0.190187	274.176
335.0000	1.8081	-0.000525904	0.191161	274.277
334.5000	1.84918	-0.000537043	0.192093	274.385
334.0000	1.89635	-0.000568897	0.193091	274.486
333.5000	1.98083	-0.000571375	0.194564	274.599
333.0000	2.05832	-0.000571675	0.19563	274.707
332.5000	1.95841	-0.000585229	0.196423	274.816
332.0000	2.00348	-0.000583574	0.197236	274.921
331.5000	2.24164	-0.000594056	0.19846	275.043
331.0000	2.27651	-0.000600953	0.199859	275.176
330.5000	2.43487	-0.000607465	0.20085	275.294
330.0000	2.50058	-0.000623779	0.202012	275.418
329.5000	2.58941	-0.000638179	0.203226	275.548
329.0000	2.6533	-0.000659151	0.204254	275.671
328.5000	2.71846	-0.000669605	0.205426	275.795
328.0000	2.77096	-0.000685794	0.206477	275.918
327.5000	2.54777	-0.000699519	0.20767	276.037
327.0000	2.47982	-0.000716786	0.208904	276.135
326.5000	2.63565	-0.000718246	0.210558	276.269
326.0000	2.55519	-0.000721371	0.212317	276.409
325.5000	2.53338	-0.000720525	0.213923	276.556
325.0000	2.44698	-0.000737013	0.215109	276.695
324.5000	2.6475	-0.000759912	0.216652	276.853
324.0000	2.68567	-0.000781081	0.218497	277.021
323.5000	2.70087	-0.000793716	0.220541	277.197
323.0000	2.4921	-0.000803702	0.222148	277.358
322.5000	2.40367	-0.000824797	0.223671	277.516
322.0000	2.26459	-0.000838388	0.225219	277.688
321.5000	2.29681	-0.000860296	0.226809	277.843
321.0000	2.20306	-0.000876799	0.228609	278.013
320.5000	2.33209	-0.000888001	0.230511	278.187
320.0000	2.14329	-0.00088905	0.232228	278.358
319.5000	2.25776	-0.000904867	0.233979	278.532
319.0000	2.19623	-0.000900123	0.235687	278.726
318.5000	2.15724	-0.000922823	0.237407	278.931
318.0000	2.19976	-0.000924613	0.238896	279.11
317.5000	2.49814	-0.000943485	0.240356	279.267
317.0000	2.55557	-0.000956844	0.242163	279.429
316.5000	2.62633	-0.000967102	0.244053	279.585
316.0000	2.51992	-0.000970053	0.245993	279.749
315.5000	2.49023	-0.000979271	0.247502	279.906
315.0000	2.60833	-0.000976407	0.249052	280.079
314.5000	2.72675	-0.000977817	0.250746	280.264
314.0000	3.01509	-0.000968036	0.252759	280.469
313.5000	3.1861	-0.000965635	0.254752	280.669
313.0000	3.2707	-0.000970858	0.256876	280.891
312.5000	3.34747	-0.000971643	0.258772	281.104
312.0000	3.25563	-0.000984386	0.261008	281.329
311.5000	3.42003	-0.00098402	0.263104	281.554
311.0000	3.45438	-0.00100103	0.265482	281.782
310.5000	3.52434	-0.00101608	0.267592	282.027
310.0000	3.54029	-0.00102293	0.269946	282.272
309.5000	3.40602	-0.00104369	0.272595	282.542
309.0000	3.42742	-0.0010538	0.275688	282.859
308.5000	3.58791	-0.00105949	0.278447	283.175
308.0000	3.64884	-0.00106563	0.281022	283.469
307.5000	3.56041	-0.00109128	0.283967	283.793
307.0000	3.89918	-0.00109053	0.28699	284.103
306.5000	3.83989	-0.00110527	0.290294	284.44
306.0000	4.15091	-0.00112497	0.29388	284.79
305.5000	4.07249	-0.00113788	0.297537	285.176
305.0000	4.07425	-0.00114663	0.30114	285.545
304.5000	4.05633	-0.00115042	0.305479	285.969
304.0000	4.18241	-0.00115713	0.310225	286.423
303.5000	4.24703	-0.00114026	0.31487	286.87
303.0000	4.26348	-0.00115652	0.319855	287.372
302.5000	4.50201	-0.00114398	0.325161	287.909
302.0000	4.52865	-0.00114048	0.330876	288.467
301.5000	4.61256	-0.00113979	0.336799	289.042
301.0000	4.71882	-0.00113262	0.342497	289.617
300.5000	4.49023	-0.00113937	0.347634	290.14
300.0000	4.49225	-0.00114627	0.3542	290.773
299.5000	4.57439	-0.00114606	0.360488	291.392
299.0000	4.64747	-0.00113409	0.36685	292.032
298.5000	4.36331	-0.0011557	0.37329	292.693
298.0000	4.34805	-0.00116096	0.379479	293.319
297.5000	4.29752	-0.00116497	0.385866	293.96
297.0000	4.4388	-0.00116329	0.392011	294.535
296.5000	4.41073	-0.00116201	0.397819	295.096
296.0000	4.40484	-0.00115928	0.403364	295.639
295.5000	4.26996	-0.00115591	0.408909	296.155
295.0000	4.18775	-0.00115315	0.413946	296.607
294.5000	3.97043	-0.0011467	0.419083	297.08
294.0000	3.75215	-0.00114035	0.424022	297.577
293.5000	3.67132	-0.00114371	0.427873	297.984
293.0000	3.48907	-0.00112019	0.432041	298.415
292.5000	3.62298	-0.00110815	0.43596	298.843
292.0000	3.59895	-0.00107369	0.439394	299.236
291.5000	3.46024	-0.00105753	0.442835	299.618
291.0000	3.25977	-0.00103696	0.446253	299.995
290.5000	3.12509	-0.00104323	0.449781	300.377
290.0000	3.10419	-0.00101073	0.453275	300.736
289.5000	3.05319	-0.00099	0.456173	301.067
289.0000	2.88888	-0.00095886	0.458859	301.384
288.5000	2.61016	-0.000952764	0.461841	301.742
288.0000	2.36493	-0.000932352	0.464677	302.089
287.5000	2.37435	-0.000908088	0.46777	302.473
287.0000	2.36669	-0.000904947	0.470827	302.894
286.5000	2.25684	-0.000891854	0.473627	303.31
286.0000	2.30141	-0.000877474	0.476438	303.692
285.5000	2.35042	-0.000835799	0.479623	304.06
285.0000	2.24885	-0.000808193	0.483083	304.46
284.5000	2.17036	-0.000800329	0.486252	304.833
284.0000	2.06157	-0.000787294	0.489686	305.231
283.5000	1.955	-0.000779634	0.493568	305.662
283.0000	1.81682	-0.000770377	0.497213	306.073
282.5000	1.84688	-0.00074043	0.501232	306.52
282.0000	1.79827	-0.000713594	0.505169	306.991
281.5000	1.91151	-0.00068369	0.508976	307.453
281.0000	1.72836	-0.000664598	0.513225	307.939
280.5000	1.59967	-0.00065938	0.517825	308.484
280.0000	1.72244	-0.000615076	0.522542	309.039
279.5000	1.64396	-0.000587133	0.527614	309.639
279.0000	1.59314	-0.000574401	0.532629	310.243
278.5000	1.63136	-0.000552361	0.538274	310.906
278.0000	1.64059	-0.000538574	0.544914	311.63
277.5000	1.8074	-0.000515284	0.551248	312.323
277.0000	1.90666	-0.000494103	0.558095	313.098
276.5000	2.27502	-0.000466391	0.565327	313.928
276.0000	2.2942	-0.000434988	0.572165	314.706
275.5000	2.50588	-0.000418154	0.580403	315.609
275.0000	2.70669	-0.00039789	0.589033	316.561
274.5000	2.83738	-0.000398323	0.598025	317.573
274.0000	2.94613	-0.000372795	0.607848	318.707
273.5000	2.92897	-0.000355377	0.617611	319.795
273.0000	3.01341	-0.000342299	0.628508	321.005
272.5000	3.22846	-0.000313808	0.639965	322.286
272.0000	3.10372	-0.000282399	0.651718	323.62
271.5000	3.31058	-0.00028057	0.665006	325.126
271.0000	3.44698	-0.000288375	0.678641	326.638
270.5000	3.72285	-0.000263293	0.693164	328.233
270.0000	3.9728	-0.000248187	0.708083	329.911
269.5000	3.98839	-0.000233789	0.723599	331.696
269.0000	3.99735	-0.000233805	0.739355	333.496
268.5000	4.07994	-0.00020784	0.756888	335.491
268.0000	4.06676	-0.000204227	0.775281	337.58
267.5000	3.93005	-0.000208709	0.79474	339.802
267.0000	4.03815	-0.000207191	0.815916	342.265
266.5000	4.43007	-0.000165357	0.837683	344.831
266.0000	4.42467	-0.000152042	0.858553	347.251
265.5000	4.37143	-0.000140164	0.88149	349.892
265.0000	4.27207	-0.000158578	0.905936	352.768
264.5000	4.16661	-0.000172022	0.929587	355.594
264.0000	4.20649	-0.000160324	0.953833	358.507
263.5000	4.32171	-0.000162953	0.979816	361.617
263.0000	3.9369	-0.000150997	1.00362	364.489
262.5000	3.78623	-0.000145747	1.02992	367.725
262.0000	3.29132	-0.000141723	1.0548	370.855
261.5000	3.82859	-0.000135578	1.0804	374.058
261.0000	3.42769	-0.000155066	1.10539	377.155
260.5000	2.64605	-0.000191357	1.13193	380.484
260.0000	2.46917	-0.000193126	1.15892	383.909
259.5000	2.48194	-0.00021032	1.1863	387.423
259.0000	2.00914	-0.00019952	1.21406	391.039
258.5000	1.37496	-0.000218437	1.24282	394.766
258.0000	0.671992	-0.000245542	1.27255	398.639
257.5000	0.628525	-0.00023979	1.30155	402.439
257.0000	0.795042	-0.000246327	1.33327	406.622
256.5000	0.785589	-0.000294428	1.36442	410.749
256.0000	-0.0912793	-0.000294846	1.39872	415.301
255.5000	-0.8192	-0.000354663	1.43448	420.061
255.0000	-1.41528	-0.000373971	1.47171	425.068
254.5000	-2.44633	-0.000414394	1.50845	430.047
254.0000	-2.82506	-0.000471896	1.54664	435.256
253.5000	-3.05589	-0.000545465	1.59107	441.302
253.0000	-3.98163	-0.000607666	1.6326	447.036
252.5000	-4.08976	-0.000602638	1.69622	455.977
252.0000	-4.14588	-0.00058411	1.75092	463.746
251.5000	-4.67557	-0.000619074	1.8003	470.819
251.0000	-5.91999	-0.000645916	1.85174	478.218
250.5000	-6.11273	-0.000690807	1.90457	485.938
250.0000	-7.22093	-0.000692527	1.95611	493.584
249.5000	-7.36385	-0.000729807	2.00916	501.553
249.0000	-9.40639	-0.000693974	2.06665	510.292
248.5000	-8.82551	-0.000596873	2.12329	518.981
248.0000	-10.047	-0.000631906	2.18446	528.503
247.5000	-11.1147	-0.00063378	2.2441	537.946
247.0000	-11.8508	-0.000602981	2.30876	548.348
246.5000	-10.5061	-0.000522445	2.37562	559.244
246.0000	-10.0514	-0.000421795	2.44489	570.682
245.5000	-9.77123	-0.000279963	2.5192	583.237
245.0000	-10.9086	-0.000135983	2.59613	596.466
244.5000	-10.0647	5.62074E-005	2.6754	610.34
244.0000	-9.90475	-4.84885E-005	2.75679	624.895
243.5000	-10.6605	-4.56493E-005	2.83581	639.336
243.0000	-13.6907	-0.000177759	2.91587	654.302
242.5000	-13.757	1.5674E-005	3.00483	671.314
242.0000	-10.2178	0.000100513	3.08192	686.384
241.5000	-10.2669	0.000156813	3.167	703.376
241.0000	-12.7632	-0.000131238	3.24305	718.905
240.5000	-11.808	-0.000261529	3.32501	736.107
240.0000	-11.4045	-3.2103E-005	3.39696	751.553
239.5000	-11.8152	0.000161141	3.47701	769.141
239.0000	-10.0036	0.000310009	3.54283	783.917
238.5000	-12.2396	0.000379041	3.60798	798.892
238.0000	-12.9031	0.000346489	3.67143	813.911
237.5000	-12.8269	0.000337397	3.72398	826.707
237.0000	-10.8783	0.000655469	3.7743	839.284
236.5000	-11.0262	0.000528965	3.81914	850.824
236.0000	-13.3096	0.000645892	3.85682	860.807
235.5000	-12.9596	0.000981293	3.89413	871.13
235.0000	-10.8197	0.00130011	3.91593	877.42
234.5000	-5.66946	0.00125177	3.93611	883.457
234.0000	-4.63991	0.00105839	3.95422	889.131
233.5000	-9.39335	0.00106317	3.97059	894.579
233.0000	-13.1806	0.00120521	3.98342	899.33
232.5000	-13.6588	0.00145959	3.99171	903.032
232.0000	-11.3895	0.00166107	3.99707	906.407
231.5000	-12.222	0.00167168	3.99858	908.568
231.0000	-8.89166	0.00135459	3.99784	910.437
230.5000	-10.7775	0.00119469	3.9945	911.799
230.0000	-7.38437	0.00119813	3.98941	912.752
229.5000	-8.35676	0.00119089	3.98281	913.473
229.0000	-4.21127	0.00143638	3.97508	913.987
228.5000	-5.87399	0.00119503	3.96681	914.361
228.0000	-6.01049	0.00117619	3.95833	914.598
227.5000	-6.20766	0.00120628	3.9486	914.798
227.0000	-0.376372	0.000851464	3.93844	914.928
226.5000	-4.38381	0.000343956	3.92765	915.055
226.0000	-8.76941	0.00044131	3.9174	915.133
225.5000	-9.4428	0.000595006	3.90623	915.183
225.0000	-5.20683	0.000665521	3.89441	915.228
224.5000	-3.00483	0.000457347	3.88225	915.263
224.0000	-2.5357	0.000711943	3.87011	915.293
223.5000	-2.18317	0.000460633	3.85827	915.325
223.0000	-6.243	0.000601007	3.84646	915.327
222.5000	-2.65759	0.000711227	3.8319	915.345
222.0000	-5.66095	0.000366885	3.81857	915.377
221.5000	-4.88252	0.000269849	3.80444	915.388
221.0000	-6.0017	0.000257066	3.79241	915.414
220.5000	-5.35867	0.000431829	3.7803	915.45
220.0000	-4.0645	0.000465472	3.76742	915.471

##### Extended Information
[Comments]
Sample name	JS187+JS190_5E-5_H2O_35-65_100EQDT+72H
Comment
User
Division
Company	Labo systeme complexes hors equilibre

[Detailed Information]
Creation date	1/26/2024 12:09 PM

Data array type	Linear data array * 4
Horizontal axis	Wavelength [nm]
Vertical axis(1)	CD [mdeg]
Vertical axis(2)	LD [dOD]
Vertical axis(3)	Abs
Vertical axis(4)	HT [V]
Start	700 nm
End	220 nm
Data interval	0.5 nm
Data points	961     

[Measurement Information]
Instrument name	CD Jasco
Model name	J-1500
Serial No.	A005261638

Detector	PM-539
Detector S/N	A0052PM539
  Lock-in amp.	X mode
  HT volt	Auto

Detector	EXPML-535
Detector S/N	A0001
  Lock-in amp.	X mode
  HT volt	Auto

Measurement date	1/26/2024 12:09 PM

Overload detect	1
Photometric mode	CD, LD, Abs, HT
Measure range	700 - 220 nm
Data pitch	0.5 nm
CD scale	200 mdeg/1.0 dOD
FL scale	200 mdeg/1.0 dOD
D.I.T.	1 sec
Bandwidth	1.00 nm
Start mode	Immediately
Scanning speed	500 nm/min
Baseline correction	Baseline
Shutter control	Auto


