TITLE	JS187+JS190_5E-5_H2O_46-54_100EQDT+72H
DATA TYPE	
ORIGIN	JASCO
OWNER	
DATE	24/01/26
TIME	10:14:11
SPECTROMETER/DATA SYSTEM	
LOCALE	1033
RESOLUTION	
DELTAX	-0.5
XUNITS	NANOMETERS
YUNITS	CD [mdeg]
Y2UNITS	LD [dOD]
Y3UNITS	ABSORBANCE
Y4UNITS	HT [V]
FIRSTX	  700.0000
LASTX	  220.0000
NPOINTS	     961
FIRSTY	     1.64803
MAXY	     7.36076
MINY	   -10.81047
XYDATA
700.0000	1.64803	-0.000692942	-0.0361268	300.905
699.5000	1.31777	-0.000703103	-0.0368329	300.635
699.0000	1.54172	-0.000695456	-0.0376305	300.312
698.5000	1.70916	-0.000671565	-0.0380212	299.943
698.0000	1.80471	-0.000672289	-0.0387093	299.547
697.5000	1.79335	-0.000652246	-0.0399071	299.128
697.0000	1.47036	-0.000632832	-0.0413485	298.668
696.5000	1.35647	-0.000633521	-0.0421737	298.185
696.0000	1.35457	-0.000631852	-0.0422623	297.654
695.5000	1.53927	-0.000657741	-0.0424388	297.116
695.0000	1.3823	-0.000673089	-0.0420894	296.63
694.5000	1.21454	-0.000679503	-0.0417628	296.161
694.0000	1.30286	-0.000690323	-0.0404756	295.707
693.5000	1.44964	-0.000686515	-0.038819	295.292
693.0000	1.4459	-0.000680587	-0.0364325	294.944
692.5000	1.34712	-0.000684121	-0.0341082	294.613
692.0000	1.22317	-0.000667496	-0.0316819	294.331
691.5000	1.24955	-0.000689332	-0.0289643	294.087
691.0000	1.20191	-0.000691343	-0.0264666	293.84
690.5000	1.25721	-0.000700947	-0.0247235	293.627
690.0000	1.14736	-0.000714128	-0.0233325	293.429
689.5000	0.902044	-0.0007174	-0.0218474	293.262
689.0000	0.84745	-0.000729006	-0.0198311	293.128
688.5000	1.14348	-0.000727147	-0.0178419	293.07
688.0000	0.952068	-0.000715936	-0.0150597	293.113
687.5000	0.856297	-0.00069694	-0.011758	293.252
687.0000	0.742029	-0.00069347	-0.00861763	293.454
686.5000	0.549882	-0.000710561	-0.00620765	293.678
686.0000	0.333813	-0.000716123	-0.00508056	293.913
685.5000	0.461289	-0.000698101	-0.00487807	294.164
685.0000	0.233788	-0.000705007	-0.00510836	294.41
684.5000	0.0292662	-0.000710482	-0.00589582	294.648
684.0000	0.522305	-0.000703224	-0.00730795	294.863
683.5000	0.502903	-0.000697883	-0.00817646	295.092
683.0000	0.547237	-0.000692007	-0.00912772	295.327
682.5000	0.322509	-0.000707652	-0.0094716	295.573
682.0000	0.401551	-0.000713202	-0.00995985	295.843
681.5000	0.601929	-0.000711846	-0.0098194	296.126
681.0000	0.923753	-0.000698363	-0.0096426	296.424
680.5000	1.04154	-0.000708046	-0.00961859	296.684
680.0000	0.877855	-0.000712247	-0.0108704	296.893
679.5000	0.908738	-0.000728603	-0.0127736	297.035
679.0000	0.828258	-0.000724562	-0.0158872	297.108
678.5000	1.08906	-0.000721386	-0.0180461	297.138
678.0000	1.31673	-0.000711509	-0.0200979	297.138
677.5000	1.52745	-0.000697175	-0.0212861	297.129
677.0000	1.54201	-0.000678962	-0.0219746	297.096
676.5000	1.68626	-0.000686884	-0.0218255	297.07
676.0000	1.57395	-0.000684626	-0.02159	297.05
675.5000	1.56107	-0.000694435	-0.0213789	297.027
675.0000	1.54797	-0.000708136	-0.0210991	296.996
674.5000	1.39051	-0.000715276	-0.0203611	296.978
674.0000	1.38568	-0.000695326	-0.0195941	296.964
673.5000	1.52901	-0.000701943	-0.0186427	296.969
673.0000	1.26996	-0.000695375	-0.0186099	296.981
672.5000	1.00413	-0.000689171	-0.018582	297.003
672.0000	1.28568	-0.000667413	-0.0181198	297.043
671.5000	1.45088	-0.000667578	-0.0172461	297.078
671.0000	1.25371	-0.000674748	-0.0164905	297.106
670.5000	1.22521	-0.000655832	-0.015344	297.153
670.0000	1.09551	-0.000623554	-0.0143502	297.209
669.5000	1.0449	-0.000632271	-0.0139777	297.258
669.0000	0.998636	-0.000637401	-0.0133516	297.331
668.5000	1.14475	-0.000651995	-0.0128116	297.398
668.0000	1.18869	-0.000677747	-0.0124723	297.479
667.5000	1.11339	-0.000677621	-0.0122727	297.564
667.0000	1.07254	-0.0006687	-0.0122188	297.661
666.5000	1.163	-0.000663634	-0.012203	297.755
666.0000	1.09061	-0.000649021	-0.0129723	297.849
665.5000	1.02705	-0.000658192	-0.0132076	297.954
665.0000	0.991306	-0.000650254	-0.0127133	298.052
664.5000	1.25413	-0.000660931	-0.0119368	298.148
664.0000	1.04016	-0.000671172	-0.0119351	298.235
663.5000	0.821598	-0.000675841	-0.0128631	298.327
663.0000	1.1739	-0.000684121	-0.0130797	298.408
662.5000	1.14195	-0.000679522	-0.0134457	298.478
662.0000	1.13032	-0.000718361	-0.0139829	298.527
661.5000	0.952758	-0.000719838	-0.013936	298.57
661.0000	0.806878	-0.00072712	-0.0144107	298.59
660.5000	0.741807	-0.000717202	-0.0150597	298.601
660.0000	0.952977	-0.000711188	-0.0155932	298.588
659.5000	0.97712	-0.000689615	-0.0165295	298.57
659.0000	0.935391	-0.000701256	-0.0171642	298.544
658.5000	0.952018	-0.000701241	-0.0177069	298.493
658.0000	0.865341	-0.000711677	-0.0178316	298.431
657.5000	0.988697	-0.000708743	-0.0185998	298.342
657.0000	1.0525	-0.000713626	-0.0184307	298.239
656.5000	1.03712	-0.000718532	-0.0194557	298.107
656.0000	1.22936	-0.00071116	-0.0204381	297.954
655.5000	1.48013	-0.000726647	-0.0200654	297.78
655.0000	1.28959	-0.00071646	-0.0204389	297.587
654.5000	1.23824	-0.000718629	-0.0213727	297.389
654.0000	1.16992	-0.000729712	-0.021536	297.188
653.5000	1.2743	-0.000736815	-0.0209478	296.999
653.0000	1.31438	-0.000730952	-0.0199225	296.832
652.5000	1.29016	-0.000716314	-0.018967	296.685
652.0000	1.44845	-0.000716974	-0.0177684	296.569
651.5000	1.26972	-0.000716695	-0.0160798	296.481
651.0000	0.805275	-0.000754042	-0.0139729	296.417
650.5000	0.808996	-0.000751819	-0.0124472	296.394
650.0000	1.06125	-0.000754507	-0.0105843	296.388
649.5000	1.00428	-0.000745881	-0.00920912	296.41
649.0000	1.14499	-0.0007517	-0.00769174	296.446
648.5000	1.22409	-0.000772136	-0.00694686	296.517
648.0000	1.40034	-0.000778579	-0.00594593	296.603
647.5000	1.25654	-0.000788054	-0.00496687	296.713
647.0000	0.867798	-0.000802493	-0.00442672	296.853
646.5000	1.06174	-0.0008179	-0.00390275	297.013
646.0000	1.23443	-0.000818955	-0.00258553	297.166
645.5000	1.44809	-0.000792624	-0.00210592	297.312
645.0000	1.43158	-0.000793531	-0.00281378	297.441
644.5000	1.57479	-0.00079777	-0.0032176	297.552
644.0000	1.70686	-0.000789005	-0.0035778	297.63
643.5000	1.67519	-0.000803011	-0.00425562	297.691
643.0000	2.06171	-0.000787751	-0.00493682	297.722
642.5000	2.26845	-0.000767534	-0.00561094	297.727
642.0000	2.25394	-0.000759819	-0.00612039	297.709
641.5000	2.09149	-0.000774849	-0.00667585	297.681
641.0000	2.05255	-0.000796087	-0.00700561	297.627
640.5000	1.69578	-0.000787237	-0.00686164	297.567
640.0000	1.62335	-0.000763503	-0.00628491	297.514
639.5000	1.39617	-0.000771758	-0.00551315	297.439
639.0000	1.69005	-0.000758647	-0.00505527	297.349
638.5000	1.65026	-0.000762368	-0.00417673	297.246
638.0000	1.79847	-0.000762343	-0.00378747	297.15
637.5000	1.65265	-0.000784029	-0.0036212	297.051
637.0000	1.63215	-0.000767066	-0.00256096	296.953
636.5000	1.70255	-0.000768308	-0.00176521	296.857
636.0000	1.71671	-0.000794166	-0.00153679	296.775
635.5000	1.75522	-0.000778628	-0.0012115	296.694
635.0000	1.60245	-0.000775613	-0.000428954	296.62
634.5000	1.39273	-0.000798879	0.000273624	296.552
634.0000	1.40253	-0.000791936	0.000940522	296.493
633.5000	1.45635	-0.000802669	0.00138604	296.45
633.0000	1.61863	-0.0007946	0.00225342	296.401
632.5000	1.44206	-0.00079766	0.00250916	296.356
632.0000	1.72701	-0.00079809	0.00261944	296.297
631.5000	1.58484	-0.00081156	0.00297391	296.234
631.0000	1.71207	-0.000806647	0.00346808	296.188
630.5000	1.74268	-0.000811569	0.00406848	296.154
630.0000	1.70505	-0.000814428	0.00470488	296.116
629.5000	1.71369	-0.000814222	0.00533748	296.064
629.0000	1.7156	-0.00080969	0.00575239	296.014
628.5000	1.79248	-0.000821917	0.00605729	295.973
628.0000	1.64318	-0.000823105	0.00657149	295.926
627.5000	1.38475	-0.000815131	0.00742233	295.877
627.0000	1.26703	-0.000833472	0.00774125	295.828
626.5000	1.4252	-0.000841937	0.00775869	295.779
626.0000	1.3758	-0.000853575	0.00781742	295.726
625.5000	1.43718	-0.000860142	0.00845422	295.669
625.0000	1.38266	-0.000877618	0.00925921	295.621
624.5000	1.67568	-0.000876144	0.0101364	295.583
624.0000	1.63366	-0.000861205	0.0109251	295.556
623.5000	1.55616	-0.00085732	0.0119648	295.558
623.0000	1.41403	-0.000855024	0.0129676	295.572
622.5000	1.35362	-0.00085452	0.0141331	295.598
622.0000	1.2653	-0.000849146	0.0148556	295.619
621.5000	1.27382	-0.000855901	0.0156436	295.652
621.0000	1.32036	-0.000867926	0.0163936	295.687
620.5000	1.52915	-0.000871313	0.0169489	295.738
620.0000	1.61621	-0.000866284	0.0174378	295.807
619.5000	1.71419	-0.000870628	0.0182165	295.893
619.0000	1.56443	-0.000893307	0.0194219	295.993
618.5000	1.58695	-0.000895627	0.0211553	296.118
618.0000	1.34706	-0.000897534	0.0228491	296.241
617.5000	1.70961	-0.000889577	0.0235901	296.377
617.0000	1.51206	-0.000884613	0.0241297	296.525
616.5000	1.72726	-0.00088569	0.0245841	296.661
616.0000	1.94132	-0.000890174	0.0256284	296.809
615.5000	2.0326	-0.000889342	0.0261415	296.946
615.0000	2.38679	-0.000908315	0.0264139	297.068
614.5000	2.49229	-0.000905239	0.0265085	297.19
614.0000	2.5546	-0.000925917	0.0266993	297.318
613.5000	2.63451	-0.000923926	0.0271637	297.45
613.0000	2.63138	-0.000905485	0.0277136	297.605
612.5000	2.47321	-0.000909003	0.0282509	297.75
612.0000	2.67344	-0.000909628	0.0288268	297.888
611.5000	2.60505	-0.000895854	0.029632	298.017
611.0000	2.75797	-0.000909626	0.0300233	298.157
610.5000	3.10175	-0.000905859	0.0302609	298.289
610.0000	3.18459	-0.000916632	0.0303045	298.409
609.5000	3.02011	-0.000918017	0.0310441	298.535
609.0000	3.13902	-0.000911587	0.0315012	298.63
608.5000	2.92078	-0.000915944	0.0325251	298.744
608.0000	2.69536	-0.000927219	0.0330644	298.843
607.5000	2.4248	-0.000942687	0.033108	298.933
607.0000	2.45434	-0.000960208	0.0337033	299.041
606.5000	2.42093	-0.000969033	0.034358	299.142
606.0000	2.32795	-0.000957183	0.0356824	299.24
605.5000	2.18874	-0.00095308	0.0366117	299.329
605.0000	2.04847	-0.000949234	0.0379545	299.424
604.5000	2.07306	-0.000964067	0.0389061	299.503
604.0000	1.77954	-0.00097167	0.0401496	299.583
603.5000	1.72439	-0.000988625	0.0415759	299.664
603.0000	1.79359	-0.000988389	0.0424869	299.735
602.5000	1.65301	-0.000995405	0.0438106	299.8
602.0000	1.89775	-0.000987262	0.0452915	299.863
601.5000	1.81338	-0.000992099	0.0466685	299.928
601.0000	1.54815	-0.00100119	0.0481194	300
600.5000	1.65908	-0.00100296	0.0500687	300.067
600.0000	1.74139	-0.000996609	0.0515876	300.116
599.5000	1.78134	-0.000985089	0.0540136	300.168
599.0000	1.77139	-0.000971634	0.0558676	300.199
598.5000	1.66205	-0.000977734	0.058341	300.231
598.0000	1.65839	-0.000981837	0.06034	300.258
597.5000	1.48171	-0.00100036	0.0622291	300.292
597.0000	1.60053	-0.00100843	0.0644936	300.332
596.5000	1.50089	-0.0010171	0.0667192	300.346
596.0000	1.68226	-0.000995736	0.0690874	300.366
595.5000	1.56269	-0.00100548	0.0713806	300.395
595.0000	1.43506	-0.00100499	0.0738249	300.401
594.5000	1.69649	-0.00101488	0.0763673	300.415
594.0000	1.77592	-0.00100245	0.0785426	300.447
593.5000	1.58735	-0.00101386	0.081327	300.482
593.0000	1.49947	-0.00100611	0.0844387	300.515
592.5000	1.71588	-0.000987086	0.0871833	300.58
592.0000	1.72173	-0.000992438	0.0898444	300.659
591.5000	1.6267	-0.00101471	0.0921519	300.732
591.0000	1.65206	-0.00100943	0.0951436	300.827
590.5000	1.57957	-0.00101293	0.0980792	300.956
590.0000	1.44948	-0.00100601	0.101261	301.1
589.5000	1.63563	-0.00101431	0.104609	301.245
589.0000	1.58333	-0.00100811	0.107928	301.392
588.5000	1.61901	-0.00100409	0.111282	301.566
588.0000	1.3825	-0.00101866	0.115102	301.771
587.5000	1.45664	-0.00101167	0.119048	302.003
587.0000	1.50189	-0.00101461	0.123133	302.285
586.5000	1.3532	-0.00101171	0.127004	302.554
586.0000	0.894681	-0.00100279	0.131638	302.848
585.5000	0.954967	-0.00100421	0.135911	303.158
585.0000	1.23431	-0.000999916	0.140201	303.487
584.5000	1.29772	-0.00098949	0.144418	303.809
584.0000	0.962005	-0.00098478	0.149424	304.183
583.5000	0.886815	-0.000964467	0.154638	304.575
583.0000	0.890834	-0.000942047	0.160486	305.006
582.5000	0.825661	-0.000915865	0.166336	305.477
582.0000	0.617418	-0.00090732	0.172147	305.942
581.5000	0.391521	-0.000863134	0.178508	306.464
581.0000	0.244373	-0.000841461	0.185445	307.017
580.5000	0.215216	-0.000813775	0.192474	307.586
580.0000	0.220347	-0.000773184	0.199444	308.169
579.5000	-0.0290026	-0.000740343	0.206422	308.768
579.0000	-0.0481252	-0.00069703	0.213759	309.391
578.5000	-0.318919	-0.00066453	0.221853	310.048
578.0000	-0.254988	-0.000624369	0.230024	310.743
577.5000	-0.557405	-0.000586289	0.238408	311.518
577.0000	-1.0252	-0.000537828	0.247556	312.282
576.5000	-1.39647	-0.000500141	0.257586	313.128
576.0000	-1.3061	-0.00046654	0.267516	313.972
575.5000	-1.50982	-0.000432018	0.278123	314.869
575.0000	-1.7106	-0.000392936	0.287731	315.727
574.5000	-1.8517	-0.000352918	0.298504	316.67
574.0000	-2.03327	-0.000332706	0.309463	317.605
573.5000	-2.049	-0.000294636	0.320684	318.579
573.0000	-2.29059	-0.000253749	0.332231	319.635
572.5000	-2.52137	-0.000202227	0.343264	320.651
572.0000	-2.61761	-0.000155441	0.355847	321.83
571.5000	-2.78656	-0.000111368	0.368492	322.995
571.0000	-2.81283	-6.23985E-005	0.38247	324.239
570.5000	-3.10642	-1.43257E-005	0.396506	325.546
570.0000	-3.21847	2.21819E-005	0.409998	326.815
569.5000	-3.44969	5.28095E-005	0.42478	328.155
569.0000	-3.92891	9.63479E-005	0.439657	329.503
568.5000	-3.88865	0.000130634	0.453503	330.819
568.0000	-4.15395	0.000173718	0.467483	332.181
567.5000	-4.44746	0.000225837	0.481843	333.577
567.0000	-4.57266	0.000240721	0.496116	334.931
566.5000	-4.91588	0.000247633	0.510276	336.26
566.0000	-4.9372	0.000309669	0.524386	337.587
565.5000	-4.98488	0.000322211	0.537889	338.891
565.0000	-5.27633	0.00031473	0.551383	340.163
564.5000	-5.15572	0.00033347	0.564873	341.432
564.0000	-5.39105	0.000314821	0.577695	342.606
563.5000	-5.4256	0.000305922	0.58956	343.718
563.0000	-5.52399	0.000314653	0.601359	344.855
562.5000	-6.05016	0.000281702	0.612362	345.89
562.0000	-6.09194	0.000273151	0.622965	346.881
561.5000	-5.96026	0.000237701	0.634523	347.923
561.0000	-5.78896	0.000179067	0.645017	348.897
560.5000	-5.41158	0.000147006	0.654716	349.8
560.0000	-5.53017	8.52369E-005	0.664207	350.654
559.5000	-5.49551	1.25466E-006	0.673208	351.412
559.0000	-5.49811	-3.58689E-005	0.680954	352.063
558.5000	-5.63987	-8.52482E-005	0.687449	352.619
558.0000	-5.19863	-0.000134979	0.692958	353.082
557.5000	-4.98055	-0.000180617	0.698249	353.486
557.0000	-5.02034	-0.000253921	0.703	353.819
556.5000	-5.05727	-0.000332433	0.706646	354.083
556.0000	-4.85992	-0.000412733	0.709084	354.274
555.5000	-4.9009	-0.000502691	0.711261	354.4
555.0000	-4.41658	-0.000567506	0.712967	354.454
554.5000	-4.26917	-0.000657813	0.714399	354.437
554.0000	-3.76003	-0.000710124	0.714458	354.333
553.5000	-3.67755	-0.000766094	0.713877	354.159
553.0000	-3.45146	-0.000787535	0.712924	353.955
552.5000	-3.68852	-0.000827893	0.712113	353.713
552.0000	-3.25788	-0.000873448	0.710716	353.402
551.5000	-3.15406	-0.000924822	0.708898	353.059
551.0000	-3.26714	-0.000971808	0.706402	352.688
550.5000	-2.94419	-0.00101217	0.703684	352.276
550.0000	-2.91514	-0.00105793	0.700899	351.829
549.5000	-3.04344	-0.00108765	0.698152	351.365
549.0000	-2.89395	-0.00113521	0.694811	350.903
548.5000	-2.34745	-0.00114675	0.691426	350.447
548.0000	-2.24782	-0.00117545	0.688762	349.943
547.5000	-2.1845	-0.00116185	0.686275	349.483
547.0000	-2.19601	-0.00116759	0.683726	348.995
546.5000	-2.05817	-0.00115401	0.680917	348.546
546.0000	-2.09433	-0.00116177	0.67767	348.125
545.5000	-2.07322	-0.00115424	0.675577	347.713
545.0000	-2.30011	-0.00114699	0.673664	347.369
544.5000	-2.03788	-0.00115347	0.67179	347.018
544.0000	-1.81546	-0.00114107	0.669807	346.703
543.5000	-2.00462	-0.00109724	0.668211	346.415
543.0000	-1.80566	-0.00105532	0.666996	346.152
542.5000	-1.7701	-0.00102939	0.666472	345.932
542.0000	-1.61934	-0.00101498	0.665875	345.739
541.5000	-1.39165	-0.000997105	0.665769	345.619
541.0000	-1.47331	-0.000978293	0.665651	345.521
540.5000	-1.45014	-0.000965305	0.666609	345.461
540.0000	-1.7039	-0.000914786	0.667937	345.424
539.5000	-1.70776	-0.000875629	0.669376	345.453
539.0000	-1.79635	-0.000855693	0.670849	345.522
538.5000	-1.73263	-0.000833638	0.672897	345.632
538.0000	-1.55109	-0.000812451	0.675676	345.774
537.5000	-1.95346	-0.000800723	0.678767	345.96
537.0000	-1.70288	-0.000804866	0.682052	346.191
536.5000	-1.84152	-0.000782284	0.685612	346.435
536.0000	-2.41679	-0.000801998	0.690027	346.751
535.5000	-2.25087	-0.000800701	0.694649	347.099
535.0000	-2.16187	-0.000766413	0.700029	347.509
534.5000	-2.27288	-0.000772958	0.705159	347.906
534.0000	-2.1355	-0.000787197	0.710759	348.356
533.5000	-2.4111	-0.000764561	0.71654	348.849
533.0000	-2.88795	-0.000805199	0.722139	349.335
532.5000	-2.90389	-0.000823367	0.728054	349.862
532.0000	-2.80812	-0.000822755	0.734511	350.432
531.5000	-2.92713	-0.000840148	0.741381	351.033
531.0000	-2.80272	-0.000844403	0.749125	351.664
530.5000	-2.78852	-0.000867706	0.756405	352.288
530.0000	-2.92119	-0.000891061	0.764035	352.968
529.5000	-2.85936	-0.000918245	0.771475	353.629
529.0000	-2.73159	-0.000932238	0.778837	354.254
528.5000	-2.65612	-0.000951758	0.786035	354.885
528.0000	-2.39103	-0.000987994	0.792965	355.491
527.5000	-2.26409	-0.00101824	0.800344	356.119
527.0000	-2.20049	-0.0010666	0.808172	356.781
526.5000	-2.06986	-0.00112254	0.815492	357.428
526.0000	-1.78291	-0.00114491	0.823266	358.091
525.5000	-1.96486	-0.00118072	0.830942	358.743
525.0000	-1.5076	-0.00123268	0.83839	359.376
524.5000	-1.17089	-0.00124637	0.845377	359.947
524.0000	-1.07542	-0.00128396	0.851827	360.466
523.5000	-0.784401	-0.00134652	0.858124	361.005
523.0000	-0.672214	-0.00139419	0.864105	361.509
522.5000	-0.313062	-0.00145495	0.869478	361.977
522.0000	-0.147012	-0.00152213	0.875347	362.469
521.5000	0.275376	-0.00157808	0.881227	362.938
521.0000	0.223063	-0.00164399	0.886625	363.376
520.5000	0.469332	-0.001717	0.891876	363.8
520.0000	0.419028	-0.00179694	0.896539	364.171
519.5000	0.60703	-0.00184946	0.901312	364.525
519.0000	0.593917	-0.00192392	0.905769	364.873
518.5000	0.916594	-0.00195723	0.909669	365.195
518.0000	0.987015	-0.00201623	0.914075	365.536
517.5000	1.19214	-0.00208693	0.918406	365.859
517.0000	1.2377	-0.00215651	0.922705	366.153
516.5000	1.28463	-0.00224297	0.92694	366.437
516.0000	1.57262	-0.0023108	0.931056	366.731
515.5000	1.60958	-0.00236964	0.934575	367.011
515.0000	1.76714	-0.00243718	0.937885	367.257
514.5000	2.07492	-0.00250395	0.941246	367.523
514.0000	2.08524	-0.00255667	0.944282	367.743
513.5000	2.09795	-0.00262266	0.947436	367.967
513.0000	2.16811	-0.00266592	0.950237	368.191
512.5000	2.34169	-0.00270605	0.953454	368.434
512.0000	2.61133	-0.00273223	0.956531	368.655
511.5000	2.72184	-0.00280475	0.959321	368.885
511.0000	2.81839	-0.00286856	0.962108	369.096
510.5000	2.74692	-0.00293622	0.964943	369.285
510.0000	2.4408	-0.00299568	0.967551	369.451
509.5000	2.20362	-0.00305727	0.969977	369.614
509.0000	2.36453	-0.00311852	0.972231	369.773
508.5000	2.3891	-0.00316363	0.974312	369.9
508.0000	2.71925	-0.00318742	0.976451	369.999
507.5000	2.75998	-0.00324063	0.978487	370.077
507.0000	2.99415	-0.00329483	0.980783	370.177
506.5000	2.75627	-0.00333895	0.982901	370.262
506.0000	2.81128	-0.0033575	0.984433	370.328
505.5000	3.04283	-0.00339363	0.985908	370.385
505.0000	2.79063	-0.00344559	0.987346	370.429
504.5000	3.23356	-0.0034854	0.988804	370.461
504.0000	2.9701	-0.00352683	0.989849	370.454
503.5000	2.73946	-0.00356632	0.990457	370.403
503.0000	2.87338	-0.00360335	0.990874	370.313
502.5000	2.80236	-0.00362351	0.990967	370.208
502.0000	2.99748	-0.0036531	0.990857	370.087
501.5000	3.03229	-0.00370812	0.990694	369.94
501.0000	3.42451	-0.00374034	0.990266	369.75
500.5000	3.50795	-0.00374477	0.989664	369.514
500.0000	3.43528	-0.00382345	0.988828	369.234
499.5000	3.26239	-0.00389661	0.987224	368.894
499.0000	3.1698	-0.00394377	0.985047	368.416
498.5000	3.15037	-0.00398975	0.982344	367.794
498.0000	3.26905	-0.00403408	0.979376	367.05
497.5000	2.99148	-0.00411168	0.976515	366.147
497.0000	3.01989	-0.00415241	0.97397	365.179
496.5000	3.35089	-0.00415921	0.97197	364.198
496.0000	3.20656	-0.00422437	0.971153	363.407
495.5000	3.44777	-0.00425975	0.970683	362.793
495.0000	3.61237	-0.00427068	0.969305	362.306
494.5000	3.49615	-0.00429849	0.967156	361.847
494.0000	3.80675	-0.00435201	0.964715	361.403
493.5000	3.74934	-0.00437529	0.961896	360.918
493.0000	3.98359	-0.00442853	0.959395	360.481
492.5000	4.16365	-0.00447163	0.956733	360.029
492.0000	4.44	-0.00455071	0.953693	359.551
491.5000	4.14378	-0.00457279	0.950617	359.117
491.0000	4.10009	-0.00461271	0.947759	358.706
490.5000	4.57427	-0.00466231	0.94494	358.34
490.0000	4.4515	-0.00470315	0.942187	358.035
489.5000	4.67285	-0.00476238	0.93931	357.78
489.0000	4.87309	-0.00477318	0.936124	357.521
488.5000	4.88021	-0.00480118	0.932276	357.208
488.0000	4.90306	-0.00483014	0.927023	356.666
487.5000	5.20778	-0.00487756	0.921207	355.898
487.0000	5.04066	-0.00492176	0.916392	355.036
486.5000	5.11221	-0.00498228	0.911389	354.029
486.0000	5.38118	-0.00501541	0.906916	353.03
485.5000	5.69918	-0.00506002	0.903646	352.044
485.0000	5.69164	-0.00509441	0.901143	351.143
484.5000	5.39244	-0.00512557	0.898305	350.393
484.0000	5.7851	-0.00514403	0.894744	349.705
483.5000	5.98362	-0.00514523	0.891218	349.111
483.0000	6.41354	-0.0051447	0.886915	348.519
482.5000	6.52023	-0.00515224	0.882524	348.008
482.0000	6.586	-0.00516232	0.877908	347.533
481.5000	6.4249	-0.00517138	0.873369	347.065
481.0000	6.41659	-0.0051985	0.869086	346.631
480.5000	6.50967	-0.00523032	0.864557	346.218
480.0000	6.58048	-0.00523049	0.859585	345.802
479.5000	6.60896	-0.00526453	0.854538	345.388
479.0000	6.5945	-0.00528817	0.847633	344.809
478.5000	6.84162	-0.00532533	0.840164	343.987
478.0000	6.88383	-0.00531088	0.833777	342.922
477.5000	6.61941	-0.00528985	0.830589	342.027
477.0000	6.29296	-0.00528939	0.827659	341.345
476.5000	6.68862	-0.00528832	0.821158	340.562
476.0000	6.74718	-0.00529527	0.813195	339.568
475.5000	6.59556	-0.00528056	0.804895	338.336
475.0000	6.50448	-0.00528829	0.796745	336.91
474.5000	6.51626	-0.00528484	0.789616	335.412
474.0000	6.4896	-0.00526946	0.782911	333.783
473.5000	6.35151	-0.00524724	0.775472	331.907
473.0000	6.30204	-0.00522968	0.767885	329.863
472.5000	6.33943	-0.00520452	0.761811	327.754
472.0000	6.08157	-0.0051935	0.75832	325.989
471.5000	6.2048	-0.00517565	0.755447	324.557
471.0000	6.16136	-0.00513643	0.75293	323.676
470.5000	5.91414	-0.00509245	0.750362	323.088
470.0000	6.2115	-0.0050577	0.74722	322.82
469.5000	6.17714	-0.00504998	0.741207	322.563
469.0000	6.46196	-0.00503314	0.730535	321.88
468.5000	6.24858	-0.00499688	0.719983	320.809
468.0000	6.13809	-0.00494999	0.712181	319.685
467.5000	5.82378	-0.0049207	0.706378	318.73
467.0000	5.86323	-0.00489099	0.701828	317.997
466.5000	5.60252	-0.00485165	0.697936	317.495
466.0000	5.64762	-0.00482204	0.69306	317.158
465.5000	5.78513	-0.00478813	0.687666	317.021
465.0000	5.94251	-0.00474617	0.681988	317.161
464.5000	6.03196	-0.00470048	0.674556	317.428
464.0000	5.84802	-0.00466758	0.664587	317.521
463.5000	5.87103	-0.00462604	0.652968	317.248
463.0000	5.82721	-0.00458101	0.641926	316.669
462.5000	5.61583	-0.00454119	0.632634	315.945
462.0000	5.45692	-0.00448716	0.624752	315.193
461.5000	5.31898	-0.00443845	0.617774	314.555
461.0000	5.23335	-0.00439986	0.611019	314.048
460.5000	5.19505	-0.00432006	0.603935	313.664
460.0000	5.07637	-0.00425915	0.596937	313.373
459.5000	5.00007	-0.0042188	0.589541	313.135
459.0000	5.01415	-0.00416337	0.580879	312.82
458.5000	4.84308	-0.00411999	0.571692	312.412
458.0000	4.9248	-0.00408019	0.561961	311.845
457.5000	4.69998	-0.00402956	0.552166	311.068
457.0000	4.56424	-0.00396847	0.542851	310.108
456.5000	4.3384	-0.00389972	0.535451	309.211
456.0000	4.28551	-0.00385154	0.527529	308.379
455.5000	4.34657	-0.00379122	0.517532	307.373
455.0000	4.3241	-0.00372505	0.508238	306.255
454.5000	4.39715	-0.00366796	0.501427	305.243
454.0000	4.71736	-0.00360872	0.495488	304.487
453.5000	4.84771	-0.00354828	0.488186	303.903
453.0000	4.71851	-0.00349557	0.480149	303.319
452.5000	4.65695	-0.00343201	0.472329	302.712
452.0000	4.48811	-0.00338739	0.464596	302.053
451.5000	4.61516	-0.00334457	0.456509	301.366
451.0000	4.73281	-0.00327601	0.448797	300.705
450.5000	4.69252	-0.00321285	0.440914	300.014
450.0000	4.70913	-0.00313714	0.434027	299.368
449.5000	4.63322	-0.00306935	0.428059	298.842
449.0000	4.78058	-0.00300931	0.42257	298.484
448.5000	4.40408	-0.0029664	0.415409	298.117
448.0000	4.5976	-0.0029057	0.407585	297.627
447.5000	4.50896	-0.00285412	0.401497	297.17
447.0000	4.24201	-0.00280218	0.397353	296.958
446.5000	4.03215	-0.00274304	0.392441	296.894
446.0000	3.9187	-0.00269907	0.384235	296.652
445.5000	3.69558	-0.00266035	0.375854	296.125
445.0000	3.4371	-0.00260629	0.368652	295.436
444.5000	3.15621	-0.00255592	0.361904	294.715
444.0000	3.27622	-0.00252004	0.355418	293.992
443.5000	3.15442	-0.00248805	0.349016	293.21
443.0000	2.92436	-0.00243881	0.343785	292.524
442.5000	2.86902	-0.00239215	0.338701	291.861
442.0000	2.80239	-0.00235807	0.334091	291.314
441.5000	2.74303	-0.00233107	0.328772	290.733
441.0000	2.67219	-0.00228639	0.323737	290.197
440.5000	2.46057	-0.00225813	0.318874	289.678
440.0000	2.59295	-0.00222136	0.313822	289.148
439.5000	2.65921	-0.00218858	0.308558	288.606
439.0000	2.66823	-0.00214405	0.3027	288.016
438.5000	2.80702	-0.00209154	0.296721	287.436
438.0000	2.89644	-0.00204781	0.290586	286.862
437.5000	3.05609	-0.0020024	0.284799	286.312
437.0000	3.15332	-0.00196097	0.278726	285.753
436.5000	3.16404	-0.00191305	0.273945	285.281
436.0000	3.09473	-0.00185909	0.269567	284.861
435.5000	3.03837	-0.00181068	0.264648	284.457
435.0000	2.89569	-0.00176064	0.259487	284.069
434.5000	2.79517	-0.00171979	0.254283	283.679
434.0000	2.74798	-0.00169109	0.248994	283.248
433.5000	2.43627	-0.00164755	0.244103	282.825
433.0000	2.4099	-0.00162231	0.239545	282.381
432.5000	2.43738	-0.00158627	0.235128	281.945
432.0000	2.44359	-0.00155415	0.2303	281.477
431.5000	2.3364	-0.00153332	0.225624	281.013
431.0000	2.2554	-0.00150452	0.221308	280.568
430.5000	2.08549	-0.00147431	0.216974	280.111
430.0000	1.85939	-0.00143468	0.213181	279.689
429.5000	1.77576	-0.00140654	0.209016	279.239
429.0000	1.56073	-0.00138349	0.204887	278.787
428.5000	1.5433	-0.00136115	0.200768	278.345
428.0000	1.65949	-0.00134383	0.196314	277.897
427.5000	1.58363	-0.0013347	0.192585	277.495
427.0000	1.54755	-0.00131438	0.18908	277.102
426.5000	1.63322	-0.00129448	0.185696	276.711
426.0000	1.63177	-0.00125495	0.182107	276.284
425.5000	1.66625	-0.00124476	0.178907	275.852
425.0000	1.63282	-0.00122056	0.175249	275.372
424.5000	1.81407	-0.00118103	0.171714	274.87
424.0000	1.86309	-0.0011562	0.16851	274.38
423.5000	1.63981	-0.00112989	0.166119	273.966
423.0000	1.60497	-0.00110557	0.163474	273.595
422.5000	1.4562	-0.00107986	0.160736	273.272
422.0000	1.4747	-0.00105847	0.15776	272.958
421.5000	1.51893	-0.00104985	0.154895	272.662
421.0000	1.71573	-0.0010268	0.152302	272.386
420.5000	1.75723	-0.000992226	0.14963	272.107
420.0000	1.72114	-0.000963519	0.147089	271.824
419.5000	1.70373	-0.000950803	0.144568	271.526
419.0000	1.77067	-0.000924381	0.142034	271.237
418.5000	1.70693	-0.000919933	0.139451	270.979
418.0000	1.68851	-0.000897532	0.137218	270.73
417.5000	1.61656	-0.000880334	0.134825	270.486
417.0000	1.63285	-0.00086833	0.132896	270.269
416.5000	1.65837	-0.000857995	0.131334	270.119
416.0000	1.55668	-0.000852381	0.129576	270.015
415.5000	1.61072	-0.000839538	0.127293	269.879
415.0000	1.68472	-0.000817952	0.12501	269.707
414.5000	1.78547	-0.000813207	0.122918	269.48
414.0000	1.8344	-0.00079284	0.121385	269.26
413.5000	1.66795	-0.000775286	0.120104	269.044
413.0000	1.46186	-0.000772611	0.118791	268.839
412.5000	1.3652	-0.00076626	0.117625	268.67
412.0000	1.25957	-0.000752498	0.116523	268.516
411.5000	1.31249	-0.000739812	0.11516	268.362
411.0000	1.25848	-0.000713537	0.113959	268.226
410.5000	1.05365	-0.000702532	0.11298	268.103
410.0000	1.10342	-0.000687434	0.112106	267.988
409.5000	1.08878	-0.00067925	0.111317	267.893
409.0000	1.14946	-0.00067818	0.110596	267.822
408.5000	1.20576	-0.000661458	0.109444	267.74
408.0000	1.08318	-0.000652991	0.108164	267.662
407.5000	1.11615	-0.00064774	0.106873	267.576
407.0000	1.16047	-0.000640714	0.105793	267.482
406.5000	1.01765	-0.000645764	0.104951	267.395
406.0000	1.05727	-0.000621038	0.104105	267.303
405.5000	1.05814	-0.000618124	0.102921	267.187
405.0000	1.27523	-0.000618873	0.101845	267.059
404.5000	1.35484	-0.000602536	0.100849	266.918
404.0000	1.32209	-0.000602048	0.100165	266.75
403.5000	1.12888	-0.000593269	0.0995753	266.566
403.0000	1.12479	-0.000589707	0.099365	266.372
402.5000	1.30967	-0.000579801	0.0987579	266.16
402.0000	1.17059	-0.000577228	0.0986182	265.96
401.5000	1.23865	-0.000562762	0.0986469	265.745
401.0000	1.18269	-0.000554695	0.0984905	265.553
400.5000	1.08514	-0.000541746	0.0984698	265.384
400.0000	1.10409	-0.000541585	0.0983801	265.241
399.5000	1.1158	-0.000528568	0.0987547	265.104
399.0000	0.983434	-0.000516894	0.099173	265.003
398.5000	0.876482	-0.000514231	0.0991827	264.9
398.0000	0.920292	-0.000500296	0.0991639	264.82
397.5000	0.794899	-0.000504054	0.0992509	264.774
397.0000	0.856229	-0.000499564	0.0997689	264.761
396.5000	0.826712	-0.000496476	0.099873	264.76
396.0000	0.737222	-0.000494286	0.100252	264.8
395.5000	0.754943	-0.000497186	0.100124	264.853
395.0000	0.741956	-0.000494865	0.100181	264.938
394.5000	0.762927	-0.000497169	0.100382	265.049
394.0000	0.728251	-0.000486906	0.100557	265.18
393.5000	0.64812	-0.000490287	0.100423	265.327
393.0000	0.642457	-0.000504126	0.100302	265.5
392.5000	0.740509	-0.000492913	0.100379	265.666
392.0000	0.83046	-0.00048871	0.100586	265.809
391.5000	0.79247	-0.000486168	0.101021	265.938
391.0000	0.746048	-0.000501579	0.101257	266.051
390.5000	0.82805	-0.00050684	0.101302	266.158
390.0000	0.765824	-0.000499555	0.101462	266.266
389.5000	0.718334	-0.000493257	0.101909	266.36
389.0000	0.816581	-0.000502618	0.1026	266.454
388.5000	0.737372	-0.000488665	0.10306	266.543
388.0000	0.616246	-0.000483788	0.103409	266.63
387.5000	0.650111	-0.000484764	0.103981	266.704
387.0000	0.617771	-0.000471701	0.105006	266.775
386.5000	0.579073	-0.000472529	0.105852	266.84
386.0000	0.397916	-0.000480173	0.106907	266.908
385.5000	0.329971	-0.000494143	0.107952	266.969
385.0000	0.346268	-0.000492459	0.10893	267.019
384.5000	0.163649	-0.000488855	0.109765	267.056
384.0000	0.0897952	-0.000481339	0.110849	267.102
383.5000	0.00193511	-0.000473035	0.11163	267.145
383.0000	0.075929	-0.00047923	0.112442	267.203
382.5000	0.197778	-0.000470873	0.113188	267.247
382.0000	0.235796	-0.000465251	0.114501	267.304
381.5000	0.407644	-0.000466413	0.115873	267.354
381.0000	0.370908	-0.00045681	0.117098	267.42
380.5000	0.383966	-0.000459738	0.118058	267.479
380.0000	0.389352	-0.000459383	0.119193	267.533
379.5000	0.466931	-0.000446759	0.120481	267.596
379.0000	0.54654	-0.000451891	0.121252	267.646
378.5000	0.497212	-0.000456253	0.121797	267.704
378.0000	0.573966	-0.000457002	0.122307	267.754
377.5000	0.722346	-0.000458187	0.122975	267.804
377.0000	0.863895	-0.000448389	0.123492	267.841
376.5000	0.890644	-0.000447282	0.124297	267.88
376.0000	1.05077	-0.000462317	0.125173	267.919
375.5000	1.1198	-0.000467264	0.125602	267.935
375.0000	1.23406	-0.000470838	0.126125	267.952
374.5000	1.02304	-0.000475128	0.12662	267.958
374.0000	0.861768	-0.00047284	0.127198	267.969
373.5000	0.818918	-0.000480418	0.127708	267.981
373.0000	0.75437	-0.00050349	0.127914	267.987
372.5000	0.879504	-0.00050705	0.128093	267.983
372.0000	1.03801	-0.000500094	0.128264	267.973
371.5000	0.998628	-0.000497344	0.128494	267.976
371.0000	0.87136	-0.000509778	0.128917	267.981
370.5000	0.775227	-0.000504846	0.129608	268.004
370.0000	0.887539	-0.00050622	0.1301	268.023
369.5000	0.810306	-0.000516681	0.130643	268.054
369.0000	0.769336	-0.00051707	0.131128	268.081
368.5000	0.626685	-0.000518859	0.131949	268.131
368.0000	0.582402	-0.000519249	0.132509	268.184
367.5000	0.430874	-0.000512223	0.133257	268.247
367.0000	0.541071	-0.000520378	0.134261	268.318
366.5000	0.650395	-0.000515438	0.134931	268.387
366.0000	0.692623	-0.000525848	0.135613	268.469
365.5000	0.797171	-0.000523955	0.1363	268.553
365.0000	1.02699	-0.000509395	0.136669	268.621
364.5000	0.90574	-0.00051044	0.137339	268.695
364.0000	0.937999	-0.00052216	0.137933	268.779
363.5000	0.891335	-0.000535551	0.138965	268.874
363.0000	0.921369	-0.000558053	0.139849	268.96
362.5000	0.966545	-0.000564768	0.140648	269.052
362.0000	1.05226	-0.000583541	0.141243	269.128
361.5000	1.06229	-0.000581621	0.142169	269.218
361.0000	1.11045	-0.000580415	0.142969	269.299
360.5000	0.985976	-0.000586619	0.14351	269.377
360.0000	1.18194	-0.000592931	0.144082	269.449
359.5000	1.3872	-0.000605281	0.14446	269.51
359.0000	1.35334	-0.000615657	0.144619	269.574
358.5000	1.33138	-0.000615605	0.144833	269.652
358.0000	1.30158	-0.000625971	0.145049	269.727
357.5000	1.25727	-0.000621471	0.145144	269.792
357.0000	1.23817	-0.000637211	0.145603	269.868
356.5000	1.17705	-0.000646132	0.146438	269.948
356.0000	1.23885	-0.000657566	0.146849	270.022
355.5000	1.17762	-0.000664645	0.147254	270.099
355.0000	1.34919	-0.000670823	0.147492	270.17
354.5000	1.44396	-0.000659007	0.147755	270.246
354.0000	1.6087	-0.000665896	0.148078	270.317
353.5000	1.55232	-0.000665011	0.148494	270.396
353.0000	1.59169	-0.000680225	0.148782	270.471
352.5000	1.60026	-0.000684401	0.149239	270.559
352.0000	1.83134	-0.000701521	0.149663	270.643
351.5000	1.86186	-0.000702488	0.149989	270.715
351.0000	1.73902	-0.000709366	0.150723	270.793
350.5000	1.91249	-0.000720686	0.151506	270.866
350.0000	1.85564	-0.000726915	0.152296	270.935
349.5000	1.81364	-0.00074126	0.153167	271.005
349.0000	1.76574	-0.000753348	0.154338	271.093
348.5000	1.64474	-0.000757276	0.155537	271.176
348.0000	1.64959	-0.000766128	0.156467	271.259
347.5000	1.60989	-0.000763133	0.157552	271.33
347.0000	1.60496	-0.000781982	0.158681	271.401
346.5000	1.29806	-0.000800327	0.159533	271.466
346.0000	1.31602	-0.000810664	0.160325	271.532
345.5000	1.28726	-0.00083009	0.161344	271.603
345.0000	1.25413	-0.000845807	0.162469	271.68
344.5000	1.31528	-0.000859939	0.163487	271.747
344.0000	1.2612	-0.00087819	0.164716	271.817
343.5000	1.15177	-0.000906889	0.165619	271.881
343.0000	1.1434	-0.000927707	0.166523	271.954
342.5000	1.11336	-0.000938218	0.167394	272.037
342.0000	1.06464	-0.000950643	0.168217	272.119
341.5000	1.08381	-0.00095991	0.16918	272.205
341.0000	1.27685	-0.000967238	0.170236	272.28
340.5000	1.48484	-0.00100716	0.170976	272.353
340.0000	1.46628	-0.001019	0.171592	272.417
339.5000	1.4841	-0.00105025	0.172094	272.494
339.0000	1.66957	-0.00107684	0.173027	272.585
338.5000	1.78999	-0.00109122	0.173979	272.671
338.0000	1.80587	-0.0011101	0.174938	272.762
337.5000	1.86034	-0.00112349	0.17588	272.86
337.0000	1.91169	-0.00114225	0.176606	272.947
336.5000	1.91297	-0.00116328	0.177505	273.031
336.0000	2.10865	-0.00118781	0.178409	273.128
335.5000	2.35495	-0.00119432	0.179362	273.227
335.0000	2.32893	-0.00121339	0.180303	273.326
334.5000	2.42988	-0.00124376	0.181191	273.429
334.0000	2.4825	-0.00128052	0.182137	273.526
333.5000	2.44418	-0.00131762	0.183559	273.634
333.0000	2.44547	-0.00134674	0.184588	273.738
332.5000	2.44411	-0.00138662	0.185398	273.849
332.0000	2.49195	-0.00139153	0.186154	273.948
331.5000	2.51075	-0.00142965	0.187257	274.059
331.0000	2.41792	-0.00145483	0.188372	274.167
330.5000	2.37098	-0.00147499	0.189181	274.268
330.0000	2.18703	-0.00151002	0.190215	274.381
329.5000	2.16688	-0.00153725	0.191379	274.506
329.0000	2.23058	-0.00159897	0.192363	274.625
328.5000	2.35721	-0.00163271	0.19341	274.738
328.0000	2.39054	-0.00165521	0.194193	274.837
327.5000	2.19407	-0.00169761	0.195269	274.944
327.0000	2.25462	-0.0017299	0.196513	275.043
326.5000	2.4223	-0.00176623	0.197972	275.16
326.0000	2.18497	-0.0017961	0.199705	275.297
325.5000	2.29897	-0.00181902	0.201196	275.433
325.0000	2.33005	-0.00185844	0.202438	275.577
324.5000	2.39633	-0.0019043	0.203938	275.73
324.0000	2.50385	-0.0019501	0.205666	275.888
323.5000	2.62387	-0.00199871	0.207598	276.053
323.0000	2.58461	-0.00203128	0.209269	276.22
322.5000	2.44837	-0.00206235	0.210978	276.393
322.0000	2.52502	-0.00209995	0.212579	276.569
321.5000	2.65399	-0.00214338	0.214336	276.738
321.0000	2.69216	-0.00220253	0.216218	276.915
320.5000	2.83022	-0.00222791	0.21811	277.088
320.0000	2.79882	-0.00225103	0.219962	277.27
319.5000	2.92883	-0.00229332	0.221905	277.461
319.0000	2.978	-0.00231199	0.223694	277.662
318.5000	2.94937	-0.00236546	0.22557	277.88
318.0000	3.03962	-0.00240004	0.227126	278.064
317.5000	3.19664	-0.00244053	0.228753	278.235
317.0000	3.09474	-0.0024651	0.23076	278.415
316.5000	3.25238	-0.00248302	0.232803	278.584
316.0000	3.32307	-0.00251967	0.235	278.77
315.5000	3.16908	-0.00255257	0.236832	278.955
315.0000	3.26038	-0.00258346	0.23888	279.172
314.5000	3.34411	-0.00262352	0.240904	279.386
314.0000	3.62469	-0.00265366	0.242982	279.596
313.5000	3.66534	-0.00269162	0.245228	279.818
313.0000	3.88129	-0.00270779	0.247438	280.048
312.5000	3.8976	-0.00273407	0.249542	280.278
312.0000	3.73691	-0.00277008	0.252098	280.532
311.5000	3.66893	-0.00278742	0.254441	280.778
311.0000	3.55969	-0.00282384	0.257213	281.041
310.5000	3.72655	-0.00286062	0.25972	281.32
310.0000	3.69549	-0.00289214	0.262326	281.588
309.5000	3.7211	-0.00292688	0.265449	281.9
309.0000	3.76538	-0.00296947	0.268847	282.244
308.5000	3.9021	-0.00299691	0.272037	282.598
308.0000	3.94673	-0.00302563	0.275061	282.932
307.5000	3.85588	-0.00305251	0.278613	283.31
307.0000	4.13231	-0.0030714	0.282302	283.679
306.5000	4.16355	-0.00310417	0.286352	284.084
306.0000	4.43646	-0.00315025	0.290606	284.494
305.5000	4.43434	-0.00318349	0.295111	284.956
305.0000	4.40252	-0.00322042	0.299711	285.415
304.5000	4.38999	-0.00326255	0.305144	285.939
304.0000	4.57806	-0.00331252	0.310903	286.485
303.5000	4.724	-0.00335388	0.316684	287.035
303.0000	4.88136	-0.00340712	0.322908	287.65
302.5000	4.99077	-0.00344698	0.32937	288.294
302.0000	4.81186	-0.00350248	0.336452	288.978
301.5000	4.86654	-0.00353394	0.343788	289.683
301.0000	5.08709	-0.00358445	0.350991	290.398
300.5000	5.06507	-0.00362162	0.357618	291.059
300.0000	5.06318	-0.00367675	0.365946	291.856
299.5000	5.26097	-0.00371751	0.373982	292.639
299.0000	5.36452	-0.00375985	0.381887	293.425
298.5000	5.35226	-0.00379711	0.389949	294.239
298.0000	5.30653	-0.00382457	0.397676	295.012
297.5000	5.39574	-0.00383744	0.40589	295.826
297.0000	5.40613	-0.00385524	0.413683	296.558
296.5000	5.49794	-0.00386553	0.421145	297.278
296.0000	5.38502	-0.00387973	0.428498	297.994
295.5000	5.38889	-0.00386306	0.436089	298.706
295.0000	5.30312	-0.00386218	0.443087	299.346
294.5000	5.27892	-0.00384218	0.450034	299.994
294.0000	5.46196	-0.00380307	0.456935	300.681
293.5000	5.49002	-0.00378033	0.462533	301.257
293.0000	5.34819	-0.00373772	0.46854	301.866
292.5000	5.2769	-0.00369456	0.474436	302.487
292.0000	5.36762	-0.00362633	0.479704	303.059
291.5000	5.25406	-0.00359916	0.48512	303.633
291.0000	5.01783	-0.00354452	0.490232	304.176
290.5000	5.13145	-0.00349162	0.495817	304.76
290.0000	4.94564	-0.00342549	0.501363	305.32
289.5000	4.90217	-0.0033647	0.50629	305.85
289.0000	4.58966	-0.00330863	0.51093	306.359
288.5000	4.62785	-0.00323626	0.516039	306.927
288.0000	4.46217	-0.00316074	0.521029	307.487
287.5000	4.42728	-0.00310274	0.526114	308.069
287.0000	4.27331	-0.00303063	0.531278	308.701
286.5000	4.31132	-0.0029721	0.536051	309.315
286.0000	4.06752	-0.00291694	0.540891	309.9
285.5000	3.88708	-0.00284787	0.546207	310.481
285.0000	3.79401	-0.00277501	0.551823	311.098
284.5000	3.77221	-0.00271773	0.556936	311.668
284.0000	3.76861	-0.00263782	0.562616	312.293
283.5000	3.58446	-0.00257196	0.568387	312.917
283.0000	3.50299	-0.00248926	0.573941	313.523
282.5000	3.39035	-0.00240346	0.580066	314.186
282.0000	3.24172	-0.00231975	0.586177	314.881
281.5000	3.1762	-0.00224285	0.591906	315.542
281.0000	3.04282	-0.0021799	0.598089	316.23
280.5000	2.93381	-0.00208725	0.604622	316.979
280.0000	2.79957	-0.00200319	0.611363	317.747
279.5000	2.59512	-0.00191459	0.618342	318.551
279.0000	2.51102	-0.00182321	0.625112	319.344
278.5000	2.16721	-0.00173949	0.632688	320.215
278.0000	2.17044	-0.00165155	0.641437	321.169
277.5000	2.22532	-0.0015514	0.649613	322.064
277.0000	2.22722	-0.00145847	0.6585	323.065
276.5000	2.14994	-0.00134141	0.667697	324.114
276.0000	1.90861	-0.00124593	0.676409	325.102
275.5000	1.8883	-0.00115428	0.686751	326.244
275.0000	1.85869	-0.00106374	0.697562	327.445
274.5000	1.64175	-0.000976823	0.708567	328.691
274.0000	1.93415	-0.000884043	0.720462	330.069
273.5000	1.73025	-0.000783339	0.73201	331.374
273.0000	1.43294	-0.000689388	0.744768	332.812
272.5000	1.36312	-0.000577835	0.757943	334.31
272.0000	1.2971	-0.000478255	0.771787	335.902
271.5000	1.40685	-0.000384215	0.787153	337.672
271.0000	1.28265	-0.000314247	0.802768	339.441
270.5000	1.57633	-0.000233553	0.819162	341.285
270.0000	1.5887	-0.000141036	0.836024	343.224
269.5000	1.19718	-5.9847E-005	0.853494	345.276
269.0000	1.28335	4.63935E-005	0.87102	347.327
268.5000	1.25055	0.000114892	0.890288	349.578
268.0000	1.51238	0.000152371	0.910627	351.949
267.5000	0.898369	0.000235758	0.931666	354.422
267.0000	0.696657	0.000279029	0.954432	357.148
266.5000	0.6689	0.000358618	0.977877	359.992
266.0000	0.690324	0.000434155	1.00029	362.671
265.5000	0.330963	0.000500767	1.02468	365.572
265.0000	0.519313	0.000578877	1.05047	368.707
264.5000	0.723524	0.000635141	1.07517	371.758
264.0000	0.890929	0.0006972	1.1	374.848
263.5000	0.782731	0.000766787	1.12629	378.111
263.0000	0.745542	0.000788719	1.14986	381.065
262.5000	0.560899	0.000825523	1.17562	384.362
262.0000	0.781829	0.000898625	1.19968	387.513
261.5000	1.03896	0.000887539	1.22382	390.666
261.0000	0.775497	0.000897858	1.24692	393.652
260.5000	0.762004	0.00093041	1.27095	396.804
260.0000	1.09243	0.000993631	1.2948	399.974
259.5000	1.11677	0.0009829	1.31845	403.16
259.0000	1.75704	0.000992333	1.34201	406.387
258.5000	1.76361	0.000974171	1.36581	409.626
258.0000	1.76097	0.000947598	1.38986	412.919
257.5000	1.97655	0.000866753	1.41282	416.082
257.0000	2.43748	0.00084206	1.43735	419.484
256.5000	1.61954	0.0007635	1.46117	422.796
256.0000	1.67856	0.00070829	1.48697	426.379
255.5000	2.06313	0.000644008	1.51359	430.077
255.0000	2.39346	0.000572211	1.5408	433.89
254.5000	2.16298	0.000507008	1.56721	437.615
254.0000	1.61034	0.000446818	1.59425	441.442
253.5000	1.01594	0.000336504	1.62509	445.765
253.0000	0.957654	0.000210594	1.65336	449.785
252.5000	0.387436	7.70733E-006	1.69558	455.892
252.0000	0.484981	-0.000219462	1.73109	461.051
251.5000	0.568217	-0.000295035	1.76248	465.624
251.0000	-0.261667	-0.000481512	1.79454	470.276
250.5000	-1.24929	-0.000685888	1.82673	475.011
250.0000	-1.17749	-0.000749794	1.85746	479.586
249.5000	-0.374074	-0.000852183	1.88836	484.226
249.0000	-0.138011	-0.0010129	1.92137	489.208
248.5000	-0.79885	-0.00126329	1.9534	494.044
248.0000	-1.22675	-0.00147673	1.98742	499.228
247.5000	-1.49676	-0.00177556	2.02025	504.293
247.0000	-1.44955	-0.0018821	2.05548	509.782
246.5000	-1.88644	-0.00208044	2.09183	515.462
246.0000	-1.65406	-0.0023511	2.12944	521.355
245.5000	-0.243226	-0.00262625	2.1697	527.787
245.0000	-0.716904	-0.00285421	2.21152	534.526
244.5000	-2.60164	-0.00308098	2.25513	541.603
244.0000	-2.4462	-0.00323692	2.3005	549.068
243.5000	-3.74116	-0.00342471	2.34524	556.532
243.0000	-4.49186	-0.00381303	2.39168	564.405
242.5000	-4.80144	-0.0040348	2.44486	573.548
242.0000	-5.54018	-0.00430861	2.49294	581.922
241.5000	-5.32565	-0.00460693	2.54845	591.718
241.0000	-7.46923	-0.00464425	2.60092	601.108
240.5000	-9.04659	-0.00475149	2.66101	612.099
240.0000	-8.87137	-0.0049308	2.71788	622.654
239.5000	-10.4119	-0.00500465	2.7867	635.636
239.0000	-10.1355	-0.00488091	2.84882	647.523
238.5000	-8.53145	-0.00495205	2.91627	660.669
238.0000	-9.57018	-0.00481179	2.98887	675.153
237.5000	-10.8105	-0.00498768	3.05579	688.795
237.0000	-10.485	-0.00486859	3.1274	703.678
236.5000	-5.83174	-0.00480171	3.19953	718.984
236.0000	-5.1435	-0.00479936	3.26842	733.885
235.5000	-5.4189	-0.00474332	3.34608	751.134
235.0000	-8.21613	-0.00468079	3.39829	762.979
234.5000	-9.59872	-0.00449944	3.45301	775.595
234.0000	-6.39565	-0.00434998	3.50923	788.793
233.5000	-7.8783	-0.00398844	3.56974	803.257
233.0000	-10.2854	-0.00358688	3.62971	817.944
232.5000	-9.85755	-0.00333093	3.68263	831.297
232.0000	-9.39719	-0.00308644	3.73893	845.952
231.5000	-6.73135	-0.00246585	3.78069	857.202
231.0000	-4.57296	-0.00218996	3.82242	868.808
230.5000	-5.7667	-0.00189673	3.85839	879.312
230.0000	-8.4957	-0.0017625	3.88746	888.301
229.5000	-3.47936	-0.00148672	3.91319	896.702
229.0000	-3.27764	-0.00109802	3.93402	904.058
228.5000	-3.11521	-0.000427938	3.95037	910.373
228.0000	-4.45072	-0.000359315	3.96181	915.445
227.5000	-5.30273	-0.000274206	3.96909	919.791
227.0000	-1.85832	0.000195006	3.97275	923.303
226.5000	1.61997	0.000258212	3.97326	926.205
226.0000	5.82929	0.000521244	3.97088	928.216
225.5000	3.56053	0.00068033	3.96611	929.846
225.0000	3.64883	0.000598292	3.959	931.052
224.5000	6.12998	0.000916636	3.95038	931.964
224.0000	6.97544	0.000779845	3.94088	932.645
223.5000	7.36076	0.000707317	3.93069	933.086
223.0000	5.46577	0.000745739	3.92004	933.373
222.5000	1.48702	0.00071168	3.90638	933.616
222.0000	3.84007	0.00062864	3.89373	933.814
221.5000	3.27333	0.00027535	3.87997	933.919
221.0000	1.81599	-5.31405E-006	3.86798	933.956
220.5000	2.56235	-0.000153259	3.85595	934.012
220.0000	5.22963	1.61604E-005	3.84309	934.038

##### Extended Information
[Comments]
Sample name	JS187+JS190_5E-5_H2O_46-54_100EQDT+72H
Comment
User
Division
Company	Labo systeme complexes hors equilibre

[Detailed Information]
Creation date	1/26/2024 11:14 AM

Data array type	Linear data array * 4
Horizontal axis	Wavelength [nm]
Vertical axis(1)	CD [mdeg]
Vertical axis(2)	LD [dOD]
Vertical axis(3)	Abs
Vertical axis(4)	HT [V]
Start	700 nm
End	220 nm
Data interval	0.5 nm
Data points	961     

[Measurement Information]
Instrument name	CD Jasco
Model name	J-1500
Serial No.	A005261638

Detector	PM-539
Detector S/N	A0052PM539
  Lock-in amp.	X mode
  HT volt	Auto

Detector	EXPML-535
Detector S/N	A0001
  Lock-in amp.	X mode
  HT volt	Auto

Measurement date	1/26/2024 11:14 AM

Overload detect	1
Photometric mode	CD, LD, Abs, HT
Measure range	700 - 220 nm
Data pitch	0.5 nm
CD scale	200 mdeg/1.0 dOD
FL scale	200 mdeg/1.0 dOD
D.I.T.	1 sec
Bandwidth	1.00 nm
Start mode	Immediately
Scanning speed	500 nm/min
Baseline correction	Baseline
Shutter control	Auto


