TITLE	JS187+JS190_5E-5_H2O_50-50_100EQDT+72H
DATA TYPE	
ORIGIN	JASCO
OWNER	
DATE	24/01/26
TIME	09:37:12
SPECTROMETER/DATA SYSTEM	
LOCALE	1033
RESOLUTION	
DELTAX	-0.5
XUNITS	NANOMETERS
YUNITS	CD [mdeg]
Y2UNITS	LD [dOD]
Y3UNITS	ABSORBANCE
Y4UNITS	HT [V]
FIRSTX	  700.0000
LASTX	  220.0000
NPOINTS	     961
FIRSTY	     1.40559
MAXY	     9.12010
MINY	    -8.06372
XYDATA
700.0000	1.40559	-0.000129657	-0.0105044	303.342
699.5000	1.17127	-0.000124789	-0.0110626	303.084
699.0000	1.09473	-0.00013374	-0.0115137	302.792
698.5000	1.27506	-0.000133242	-0.011576	302.452
698.0000	1.40206	-0.000142031	-0.012091	302.069
697.5000	1.32338	-0.000124196	-0.0130094	301.674
697.0000	0.921873	-0.000105005	-0.0141723	301.237
696.5000	0.995684	-9.05218E-005	-0.0146904	300.779
696.0000	0.945776	-8.42745E-005	-0.0146664	300.255
695.5000	0.978977	-9.34947E-005	-0.0146864	299.728
695.0000	0.993461	-0.000118386	-0.0142249	299.249
694.5000	0.867084	-0.000121618	-0.0140057	298.767
694.0000	0.931895	-0.000118609	-0.0130626	298.277
693.5000	1.04485	-0.000108602	-0.0118735	297.815
693.0000	0.877412	-0.000108043	-0.010121	297.405
692.5000	0.591231	-0.000109183	-0.00829389	297.025
692.0000	0.472323	-0.000101952	-0.00643702	296.688
691.5000	0.635986	-0.000110306	-0.00423327	296.394
691.0000	0.731274	-0.000101749	-0.00209695	296.112
690.5000	0.68359	-8.41221E-005	-0.000615696	295.873
690.0000	0.724585	-9.32368E-005	0.000592673	295.656
689.5000	0.741971	-9.63886E-005	0.0016953	295.453
689.0000	0.798925	-0.000112823	0.00317287	295.267
688.5000	0.855491	-0.000126268	0.00441997	295.14
688.0000	0.7574	-0.000131539	0.00627856	295.097
687.5000	0.83164	-0.000132609	0.00865293	295.151
687.0000	0.630143	-0.000126734	0.0108844	295.269
686.5000	0.569543	-0.000145858	0.0129151	295.458
686.0000	0.596971	-0.000158731	0.0139026	295.681
685.5000	0.745092	-0.000150436	0.0142054	295.944
685.0000	0.56328	-0.000174858	0.0142445	296.216
684.5000	0.289919	-0.000190196	0.0136036	296.468
684.0000	0.628586	-0.000196741	0.0123966	296.704
683.5000	0.671965	-0.000203378	0.011591	296.94
683.0000	0.563347	-0.000211045	0.0106	297.172
682.5000	0.37438	-0.000224037	0.0100513	297.401
682.0000	0.703686	-0.000218467	0.00935167	297.653
681.5000	0.757245	-0.000222145	0.0091185	297.901
681.0000	1.00353	-0.000202475	0.00913696	298.186
680.5000	1.23534	-0.000194774	0.00947189	298.476
680.0000	1.15086	-0.000205883	0.00878896	298.74
679.5000	1.25883	-0.000218325	0.00773561	298.963
679.0000	1.22063	-0.000219655	0.00523185	299.094
678.5000	1.29274	-0.000216999	0.00384137	299.196
678.0000	1.38467	-0.000208445	0.00199618	299.216
677.5000	1.51929	-0.000204776	0.00079688	299.206
677.0000	1.30857	-0.00018736	0.000246683	299.185
676.5000	1.72989	-0.000192936	0.00025469	299.147
676.0000	1.53862	-0.00018577	0.000453686	299.123
675.5000	1.43989	-0.000187529	0.000717395	299.104
675.0000	1.24625	-0.000214394	0.00111449	299.084
674.5000	1.36161	-0.000202734	0.00182708	299.064
674.0000	1.08898	-0.000205399	0.00259446	299.05
673.5000	1.09531	-0.000212952	0.00356549	299.057
673.0000	0.833385	-0.000216075	0.00358421	299.068
672.5000	0.504094	-0.000227601	0.00366011	299.094
672.0000	0.643518	-0.00022061	0.00379413	299.103
671.5000	0.673873	-0.000199275	0.00452658	299.126
671.0000	0.49496	-0.000199975	0.00530979	299.156
670.5000	0.580999	-0.00019544	0.00626012	299.185
670.0000	0.372598	-0.000185042	0.00713028	299.229
669.5000	0.530301	-0.000169383	0.0075865	299.287
669.0000	0.689825	-0.000190562	0.00811742	299.351
668.5000	0.786812	-0.000221439	0.00866923	299.42
668.0000	0.572787	-0.000242077	0.00910396	299.511
667.5000	0.691383	-0.000240524	0.00930245	299.595
667.0000	0.853756	-0.000221606	0.00922449	299.681
666.5000	1.02947	-0.000223899	0.00916321	299.768
666.0000	1.11087	-0.000210384	0.00850038	299.872
665.5000	1.17917	-0.000220579	0.00821772	299.973
665.0000	1.34699	-0.000240242	0.00887725	300.088
664.5000	1.50909	-0.000231099	0.0097075	300.189
664.0000	1.20535	-0.000241017	0.00992552	300.298
663.5000	1.08281	-0.000261326	0.0090115	300.392
663.0000	1.33771	-0.000276854	0.00895906	300.488
662.5000	1.33483	-0.000269853	0.00874651	300.573
662.0000	1.21946	-0.000304453	0.00834196	300.635
661.5000	0.84697	-0.000309834	0.00842805	300.682
661.0000	0.741383	-0.000306204	0.0081814	300.723
660.5000	0.792667	-0.000284143	0.00770389	300.751
660.0000	0.976063	-0.000271241	0.00751846	300.771
659.5000	1.04819	-0.000260717	0.00664885	300.759
659.0000	0.97299	-0.000271587	0.00622538	300.753
658.5000	0.85289	-0.000275296	0.00598008	300.73
658.0000	0.753792	-0.000276627	0.00604846	300.685
657.5000	1.02595	-0.000273362	0.00550405	300.617
657.0000	0.695987	-0.000256486	0.00584294	300.53
656.5000	0.617237	-0.000265362	0.00507318	300.421
656.0000	0.82066	-0.000257504	0.00427567	300.285
655.5000	1.02694	-0.000277437	0.00492728	300.136
655.0000	0.843312	-0.000263241	0.00481405	299.966
654.5000	0.788502	-0.000253607	0.0039336	299.772
654.0000	0.722525	-0.000248283	0.00379154	299.571
653.5000	0.905363	-0.000232229	0.00447132	299.39
653.0000	1.0871	-0.000211779	0.00533844	299.207
652.5000	1.01245	-0.000212835	0.00603614	299.034
652.0000	1.25878	-0.000220959	0.00693022	298.889
651.5000	1.02828	-0.000218811	0.00834356	298.775
651.0000	0.780687	-0.000228852	0.0101791	298.685
650.5000	0.714604	-0.000220318	0.0112888	298.623
650.0000	1.11341	-0.000225191	0.0130495	298.607
649.5000	1.04374	-0.000222372	0.0140557	298.595
649.0000	1.03253	-0.000224583	0.0154496	298.618
648.5000	1.27162	-0.000251898	0.0160035	298.672
648.0000	1.29385	-0.000246325	0.016883	298.748
647.5000	1.13756	-0.000246361	0.0177539	298.848
647.0000	1.13466	-0.00024438	0.0181326	298.974
646.5000	1.20869	-0.000266256	0.0185906	299.128
646.0000	1.56783	-0.000273548	0.0199139	299.282
645.5000	1.55141	-0.000277711	0.0205548	299.444
645.0000	1.48129	-0.000306172	0.0199551	299.585
644.5000	1.52194	-0.000305994	0.0198159	299.722
644.0000	1.74001	-0.000293895	0.0198507	299.838
643.5000	1.36478	-0.000314456	0.019387	299.918
643.0000	1.54038	-0.000323863	0.0190207	299.98
642.5000	1.75315	-0.000323495	0.0187475	300.022
642.0000	1.75338	-0.00029829	0.0185315	300.033
641.5000	1.84261	-0.000295006	0.0182356	300.028
641.0000	1.8828	-0.000297032	0.0181283	299.995
640.5000	1.70387	-0.000289714	0.0185411	299.96
640.0000	1.77196	-0.000276473	0.0191466	299.91
639.5000	1.76717	-0.000293497	0.019981	299.84
639.0000	1.78458	-0.000291407	0.0206451	299.769
638.5000	1.872	-0.000300564	0.0216844	299.681
638.0000	1.7276	-0.000288274	0.0221306	299.59
637.5000	1.70128	-0.000273161	0.0222684	299.487
637.0000	1.54738	-0.000267108	0.0234851	299.403
636.5000	1.60686	-0.000287028	0.0243509	299.313
636.0000	1.62917	-0.000318062	0.024645	299.237
635.5000	1.75643	-0.000312236	0.0250129	299.159
635.0000	1.69366	-0.000296622	0.0259029	299.094
634.5000	1.49327	-0.000311975	0.0265961	299.025
634.0000	1.30388	-0.0003106	0.02725	298.964
633.5000	1.21121	-0.000331503	0.0276281	298.915
633.0000	1.25413	-0.000339374	0.0284621	298.863
632.5000	1.14363	-0.000349745	0.0287847	298.823
632.0000	1.39506	-0.000347136	0.0290786	298.781
631.5000	1.40905	-0.000340225	0.0296374	298.737
631.0000	1.5663	-0.000318054	0.030194	298.697
630.5000	1.59286	-0.000317969	0.0308365	298.666
630.0000	1.60306	-0.000312165	0.0314605	298.627
629.5000	1.83181	-0.000318397	0.032325	298.596
629.0000	1.98462	-0.0002928	0.0328135	298.553
628.5000	1.99688	-0.000309805	0.0331898	298.519
628.0000	1.99432	-0.000286371	0.0337029	298.471
627.5000	1.91539	-0.000259448	0.0345796	298.424
627.0000	1.8998	-0.000279696	0.0349162	298.376
626.5000	2.0031	-0.000279535	0.0349154	298.325
626.0000	1.86217	-0.000278233	0.0350681	298.281
625.5000	1.9383	-0.000277432	0.0358799	298.24
625.0000	1.92571	-0.000292141	0.036692	298.192
624.5000	1.92254	-0.000286231	0.0376191	298.158
624.0000	1.68216	-0.000271231	0.0384336	298.134
623.5000	1.54509	-0.000266549	0.0394149	298.13
623.0000	1.32117	-0.000269713	0.040281	298.131
622.5000	1.19988	-0.000264459	0.0412435	298.139
622.0000	1.17212	-0.000273536	0.0419011	298.153
621.5000	1.16867	-0.000281432	0.0426451	298.183
621.0000	1.11389	-0.000267509	0.043445	298.222
620.5000	1.0299	-0.000285636	0.0440866	298.283
620.0000	0.993517	-0.00027893	0.0446096	298.355
619.5000	1.0125	-0.000289091	0.0455011	298.452
619.0000	0.985552	-0.00030358	0.0468643	298.568
618.5000	1.07064	-0.000304162	0.0486071	298.695
618.0000	0.925219	-0.000323756	0.0503992	298.828
617.5000	1.30976	-0.000317701	0.0511288	298.963
617.0000	1.04753	-0.000308193	0.0516106	299.107
616.5000	1.13275	-0.000318701	0.052102	299.248
616.0000	1.28741	-0.000310876	0.0530802	299.391
615.5000	1.30886	-0.000340339	0.053607	299.529
615.0000	1.61887	-0.000345259	0.0540308	299.667
614.5000	1.78164	-0.00033707	0.0543294	299.809
614.0000	1.66971	-0.000336818	0.0548068	299.965
613.5000	1.68477	-0.000332044	0.0554228	300.112
613.0000	1.81993	-0.000332236	0.055952	300.267
612.5000	1.8103	-0.00033326	0.0565734	300.421
612.0000	2.26607	-0.000330797	0.0572257	300.567
611.5000	2.13358	-0.000330485	0.0580794	300.702
611.0000	2.01387	-0.00033946	0.0584639	300.841
610.5000	2.17974	-0.000339359	0.0588222	300.986
610.0000	2.34349	-0.000332564	0.0589189	301.112
609.5000	2.25035	-0.000334223	0.0596737	301.24
609.0000	2.15845	-0.000341196	0.0603093	301.354
608.5000	1.96881	-0.000356844	0.0614161	301.476
608.0000	1.71731	-0.000361411	0.0621501	301.594
607.5000	1.47088	-0.000379854	0.0622995	301.695
607.0000	1.55845	-0.000390689	0.062931	301.808
606.5000	1.49021	-0.000396732	0.0636648	301.917
606.0000	1.57917	-0.000401084	0.0650213	302.018
605.5000	1.57863	-0.000402782	0.0660408	302.117
605.0000	1.14739	-0.000415227	0.0672943	302.204
604.5000	1.22924	-0.000409506	0.0683172	302.29
604.0000	0.947182	-0.000423671	0.0695702	302.372
603.5000	0.584402	-0.000449518	0.0709314	302.447
603.0000	0.895091	-0.000449298	0.0718109	302.516
602.5000	0.968473	-0.000461011	0.0731317	302.581
602.0000	1.26985	-0.000452082	0.074672	302.65
601.5000	1.10642	-0.000452383	0.0761951	302.73
601.0000	1.18524	-0.00045776	0.0776927	302.806
600.5000	1.46897	-0.000433599	0.0796302	302.873
600.0000	1.44652	-0.000429205	0.0811466	302.922
599.5000	1.38707	-0.000415185	0.0835738	302.974
599.0000	1.38371	-0.000400427	0.0855548	303.018
598.5000	1.28418	-0.000390426	0.0880033	303.048
598.0000	1.52609	-0.000382588	0.0899373	303.069
597.5000	1.43748	-0.000390486	0.0917147	303.092
597.0000	1.61386	-0.00039158	0.0938487	303.121
596.5000	1.59561	-0.000395961	0.0960066	303.128
596.0000	1.69692	-0.000379842	0.0981824	303.13
595.5000	1.8073	-0.00037985	0.100402	303.153
595.0000	1.69118	-0.000371885	0.102817	303.155
594.5000	1.74437	-0.000375849	0.105407	303.174
594.0000	1.72546	-0.000370245	0.107479	303.196
593.5000	1.70847	-0.000366283	0.109865	303.193
593.0000	1.75515	-0.000359191	0.112733	303.204
592.5000	1.90794	-0.000356897	0.114947	303.218
592.0000	2.09626	-0.000344937	0.117472	303.285
591.5000	1.96906	-0.00035628	0.119564	303.338
591.0000	2.23467	-0.00033753	0.122302	303.409
590.5000	2.34169	-0.000337467	0.124825	303.5
590.0000	2.41355	-0.000341461	0.12751	303.598
589.5000	2.47989	-0.000345539	0.130435	303.703
589.0000	2.43977	-0.000344373	0.133465	303.823
588.5000	2.54308	-0.000341033	0.136494	303.968
588.0000	2.49718	-0.000348163	0.140058	304.15
587.5000	2.23505	-0.000354251	0.143494	304.334
587.0000	2.47633	-0.000357335	0.147	304.562
586.5000	2.32932	-0.00035336	0.150324	304.781
586.0000	2.12105	-0.000336338	0.154231	305.007
585.5000	2.07475	-0.000344702	0.157898	305.261
585.0000	1.89351	-0.000332491	0.161676	305.542
584.5000	1.95159	-0.000320602	0.16545	305.824
584.0000	1.8855	-0.000323492	0.169828	306.14
583.5000	1.68893	-0.000317489	0.174281	306.46
583.0000	1.59142	-0.000316122	0.179262	306.81
582.5000	1.47674	-0.00031222	0.184063	307.183
582.0000	1.21591	-0.000295723	0.189065	307.571
581.5000	0.942616	-0.000265511	0.194633	308.019
581.0000	0.730407	-0.000259878	0.200554	308.476
580.5000	0.904615	-0.000232506	0.206532	308.946
580.0000	0.850099	-0.000209365	0.212271	309.411
579.5000	0.867475	-0.000188414	0.218186	309.909
579.0000	0.962801	-0.000159263	0.224406	310.425
578.5000	0.801983	-0.00014997	0.231241	310.961
578.0000	0.853192	-0.000113678	0.238095	311.53
577.5000	0.970496	-9.10337E-005	0.244976	312.159
577.0000	0.864545	-5.22952E-005	0.252501	312.766
576.5000	0.875812	-2.72132E-005	0.260755	313.438
576.0000	0.807509	2.27917E-006	0.268892	314.107
575.5000	0.906804	2.86507E-005	0.277556	314.813
575.0000	0.94082	6.45563E-005	0.285302	315.487
574.5000	1.1532	9.58129E-005	0.294187	316.243
574.0000	1.13994	0.000118245	0.303224	316.987
573.5000	1.31942	0.000149521	0.312397	317.756
573.0000	1.40763	0.000198187	0.321529	318.57
572.5000	1.17529	0.000227628	0.330278	319.355
572.0000	1.35097	0.00026057	0.340261	320.271
571.5000	1.28318	0.000287171	0.350344	321.175
571.0000	1.14643	0.000324645	0.361557	322.135
570.5000	1.26497	0.000381597	0.372645	323.138
570.0000	1.49421	0.000422188	0.383389	324.123
569.5000	1.26216	0.000464031	0.395094	325.142
569.0000	0.915726	0.000482706	0.406958	326.174
568.5000	0.944242	0.000519644	0.417938	327.188
568.0000	0.931038	0.000550143	0.428941	328.233
567.5000	0.575908	0.000569345	0.440167	329.296
567.0000	0.597674	0.000598189	0.45158	330.342
566.5000	0.578824	0.000591344	0.462869	331.361
566.0000	0.540519	0.000641733	0.473969	332.361
565.5000	0.55162	0.000669185	0.484518	333.343
565.0000	0.894394	0.000670503	0.495149	334.302
564.5000	0.996838	0.000696209	0.505868	335.264
564.0000	0.881428	0.000676865	0.515975	336.138
563.5000	0.787459	0.000667555	0.525331	336.971
563.0000	0.840174	0.000654151	0.534659	337.832
562.5000	0.681662	0.00064013	0.543146	338.586
562.0000	0.699633	0.000598999	0.551386	339.311
561.5000	0.439281	0.000567169	0.56053	340.081
561.0000	0.351791	0.000525819	0.568893	340.812
560.5000	0.574818	0.000511074	0.576545	341.482
560.0000	0.63877	0.000453044	0.584051	342.11
559.5000	0.947192	0.000415729	0.591288	342.666
559.0000	1.2509	0.000392215	0.597443	343.135
558.5000	1.19153	0.000340666	0.602606	343.538
558.0000	1.20387	0.000277549	0.606943	343.867
557.5000	1.00814	0.000207392	0.611316	344.165
557.0000	0.714293	0.000138215	0.615271	344.406
556.5000	0.579987	9.79719E-005	0.618206	344.589
556.0000	0.675902	4.90216E-005	0.620175	344.725
555.5000	0.856635	-3.33024E-006	0.622066	344.818
555.0000	1.08968	-4.18001E-005	0.623593	344.852
554.5000	1.47024	-9.98729E-005	0.624922	344.824
554.0000	1.39793	-0.000133952	0.625319	344.759
553.5000	1.58589	-0.00018686	0.62507	344.624
553.0000	1.61773	-0.000234109	0.624467	344.462
552.5000	1.59935	-0.00027653	0.624033	344.265
552.0000	1.75188	-0.000350373	0.623148	344.015
551.5000	1.51353	-0.000386471	0.622011	343.752
551.0000	1.29445	-0.00043224	0.62033	343.476
550.5000	1.32304	-0.000469209	0.618345	343.15
550.0000	1.57055	-0.000470718	0.616381	342.799
549.5000	1.55236	-0.000488472	0.614544	342.442
549.0000	1.80668	-0.000500081	0.612054	342.079
548.5000	2.02956	-0.000541297	0.609487	341.72
548.0000	1.94852	-0.000560349	0.607755	341.324
547.5000	1.97138	-0.000577032	0.606105	340.961
547.0000	1.71766	-0.000582739	0.604425	340.575
546.5000	1.67385	-0.000577705	0.602352	340.212
546.0000	1.68881	-0.000569467	0.599769	339.869
545.5000	1.78457	-0.000558532	0.598263	339.527
545.0000	1.86956	-0.000561077	0.596899	339.247
544.5000	2.09656	-0.000556951	0.595537	338.957
544.0000	2.20167	-0.000528518	0.593993	338.693
543.5000	2.08217	-0.000480217	0.5929	338.464
543.0000	2.2729	-0.000453404	0.592174	338.257
542.5000	2.28757	-0.000456039	0.591949	338.072
542.0000	1.94222	-0.00044327	0.591535	337.902
541.5000	1.87114	-0.000446111	0.591411	337.783
541.0000	1.89546	-0.000429934	0.591221	337.679
540.5000	1.66579	-0.000412964	0.591961	337.597
540.0000	1.6312	-0.000409372	0.593032	337.534
539.5000	1.94555	-0.000383175	0.594036	337.517
539.0000	2.02749	-0.000385294	0.594937	337.525
538.5000	1.90156	-0.000379452	0.596481	337.58
538.0000	1.82144	-0.000384175	0.598659	337.657
537.5000	1.81625	-0.000360473	0.601057	337.767
537.0000	1.8504	-0.000349851	0.603638	337.92
536.5000	1.80128	-0.000337096	0.606481	338.084
536.0000	1.82135	-0.000326759	0.609816	338.281
535.5000	2.2156	-0.000331034	0.613166	338.489
535.0000	2.32766	-0.000300956	0.617091	338.738
534.5000	2.33332	-0.000303788	0.620767	338.974
534.0000	2.46618	-0.000288422	0.624957	339.267
533.5000	2.32214	-0.000252285	0.629103	339.578
533.0000	2.17133	-0.000276987	0.63311	339.886
532.5000	2.03139	-0.000272852	0.637443	340.234
532.0000	2.02567	-0.000275646	0.642248	340.618
531.5000	1.92104	-0.000280396	0.647393	341.023
531.0000	1.71082	-0.000262919	0.653287	341.444
530.5000	1.89176	-0.000288374	0.658746	341.86
530.0000	2.12691	-0.000300494	0.664331	342.308
529.5000	2.23899	-0.000307814	0.669958	342.761
529.0000	2.34029	-0.000312402	0.675373	343.163
528.5000	2.2041	-0.000341311	0.680788	343.589
528.0000	2.09444	-0.000392259	0.685998	343.997
527.5000	1.8521	-0.000430061	0.691659	344.425
527.0000	2.06661	-0.000482798	0.69765	344.874
526.5000	2.02217	-0.000534937	0.703097	345.304
526.0000	2.32616	-0.000549332	0.709066	345.756
525.5000	2.48716	-0.000597291	0.714828	346.185
525.0000	2.78794	-0.000636101	0.720563	346.616
524.5000	3.09873	-0.000672294	0.726072	347.012
524.0000	3.27765	-0.000711288	0.731085	347.363
523.5000	3.3432	-0.000727367	0.735908	347.727
523.0000	3.57606	-0.000780198	0.740469	348.063
522.5000	3.52967	-0.000831505	0.744529	348.376
522.0000	3.73435	-0.000874347	0.748998	348.703
521.5000	3.74531	-0.000942165	0.753583	349.018
521.0000	3.18323	-0.000989394	0.757717	349.306
520.5000	2.98771	-0.00105631	0.761855	349.596
520.0000	2.93298	-0.00110294	0.765459	349.842
519.5000	3.24896	-0.00112412	0.769167	350.069
519.0000	2.97742	-0.00116634	0.772593	350.294
518.5000	2.9638	-0.00122458	0.775623	350.512
518.0000	2.91227	-0.00129643	0.779041	350.735
517.5000	2.56915	-0.00136371	0.782533	350.956
517.0000	2.5677	-0.00146425	0.786058	351.157
516.5000	2.62887	-0.00150406	0.789601	351.356
516.0000	2.83145	-0.00157581	0.792825	351.544
515.5000	3.06441	-0.0016289	0.79566	351.741
515.0000	2.93819	-0.00170815	0.798371	351.913
514.5000	2.76675	-0.0017356	0.801202	352.113
514.0000	2.95783	-0.00176073	0.803842	352.282
513.5000	2.95013	-0.00181745	0.806518	352.446
513.0000	3.02302	-0.00187319	0.808842	352.611
512.5000	3.1384	-0.00193331	0.811674	352.803
512.0000	3.43431	-0.00197481	0.814397	352.978
511.5000	3.22176	-0.00204505	0.816779	353.156
511.0000	3.18054	-0.00211757	0.819284	353.329
510.5000	3.23605	-0.0021674	0.821851	353.482
510.0000	2.8789	-0.00219609	0.824379	353.633
509.5000	3.11992	-0.00222891	0.826614	353.77
509.0000	3.60329	-0.00224396	0.828704	353.905
508.5000	3.40714	-0.00231033	0.830562	354.004
508.0000	3.3227	-0.00233987	0.832621	354.09
507.5000	3.14258	-0.00238794	0.834506	354.149
507.0000	3.06264	-0.0024407	0.83641	354.203
506.5000	2.9916	-0.00247956	0.83832	354.262
506.0000	3.07724	-0.00253022	0.839674	354.306
505.5000	2.55071	-0.00258887	0.840879	354.332
505.0000	2.58877	-0.0026265	0.842197	354.362
504.5000	2.69441	-0.00269159	0.843551	354.381
504.0000	2.77122	-0.00273835	0.844463	354.359
503.5000	2.86509	-0.00277908	0.845172	354.321
503.0000	3.24116	-0.0027978	0.845627	354.239
502.5000	3.07958	-0.00280895	0.845808	354.147
502.0000	2.80562	-0.00282283	0.845722	354.033
501.5000	2.95818	-0.00288184	0.84548	353.883
501.0000	2.76434	-0.00292458	0.845129	353.709
500.5000	2.38288	-0.00295682	0.844729	353.503
500.0000	2.48864	-0.00299649	0.84411	353.256
499.5000	2.45108	-0.00302885	0.842722	352.952
499.0000	2.50375	-0.00309275	0.841067	352.548
498.5000	2.42086	-0.00311266	0.839117	352.03
498.0000	2.55177	-0.00315429	0.836827	351.386
497.5000	2.65632	-0.00318918	0.834692	350.593
497.0000	2.85173	-0.00321361	0.832891	349.74
496.5000	2.97284	-0.00324185	0.830903	348.796
496.0000	3.13203	-0.00325709	0.829657	347.987
495.5000	3.00444	-0.00328174	0.82864	347.336
495.0000	2.7597	-0.00332773	0.827127	346.852
494.5000	2.77116	-0.0033509	0.825106	346.423
494.0000	2.96092	-0.0033678	0.822789	346.009
493.5000	2.99652	-0.00339717	0.820271	345.572
493.0000	3.33634	-0.00343333	0.817966	345.172
492.5000	3.44367	-0.00344071	0.815605	344.768
492.0000	3.4513	-0.00350055	0.812847	344.337
491.5000	3.30733	-0.00353602	0.810063	343.949
491.0000	3.13626	-0.00356128	0.807515	343.586
490.5000	3.38565	-0.0035926	0.80497	343.262
490.0000	3.4686	-0.00365995	0.802409	342.988
489.5000	3.23309	-0.00372096	0.79964	342.753
489.0000	3.10526	-0.00375935	0.796664	342.526
488.5000	3.10506	-0.00379884	0.793447	342.29
488.0000	2.98593	-0.00385692	0.789511	341.907
487.5000	2.87524	-0.00389826	0.785106	341.314
487.0000	2.91156	-0.00392575	0.781263	340.583
486.5000	3.11097	-0.00397126	0.777165	339.706
486.0000	2.82726	-0.00400461	0.773379	338.813
485.5000	2.89707	-0.00403582	0.770485	337.899
485.0000	2.49931	-0.00411392	0.768033	337.034
484.5000	2.49087	-0.00414634	0.765325	336.323
484.0000	2.33508	-0.00418087	0.762167	335.7
483.5000	2.12097	-0.00420301	0.759163	335.18
483.0000	2.11438	-0.00423081	0.755584	334.683
482.5000	2.43595	-0.00425513	0.751803	334.252
482.0000	2.35166	-0.00427515	0.747833	333.86
481.5000	2.21115	-0.00429037	0.744035	333.483
481.0000	2.43943	-0.00431168	0.740464	333.137
480.5000	2.21038	-0.0043416	0.736711	332.818
480.0000	2.16464	-0.00433224	0.732647	332.509
479.5000	1.99611	-0.00434869	0.728532	332.204
479.0000	1.98337	-0.00436741	0.723369	331.822
478.5000	2.32397	-0.00438501	0.717906	331.232
478.0000	2.35034	-0.00440743	0.713048	330.357
477.5000	2.25048	-0.00441044	0.710152	329.52
477.0000	2.01679	-0.0044196	0.707465	328.883
476.5000	2.01179	-0.00440395	0.702548	328.286
476.0000	2.30581	-0.00439938	0.696635	327.53
475.5000	2.41157	-0.00438832	0.690292	326.533
475.0000	2.51153	-0.00439025	0.683845	325.322
474.5000	2.52842	-0.00438174	0.678243	324.02
474.0000	2.39593	-0.00437841	0.673284	322.613
473.5000	2.19628	-0.00436934	0.667756	320.981
473.0000	2.35052	-0.00434605	0.662003	319.176
472.5000	2.33777	-0.00430942	0.656933	317.223
472.0000	2.22449	-0.00428618	0.653532	315.515
471.5000	2.38637	-0.00424828	0.65049	314.105
471.0000	2.21338	-0.00423819	0.648017	313.252
470.5000	2.0782	-0.00422827	0.645154	312.651
470.0000	1.84842	-0.00418932	0.641972	312.386
469.5000	1.90216	-0.00416584	0.637186	312.256
469.0000	1.98396	-0.00415052	0.629469	311.88
468.5000	2.05845	-0.0041384	0.621336	311.072
468.0000	1.89606	-0.00411668	0.614862	310.106
467.5000	1.66164	-0.00409479	0.609831	309.25
467.0000	1.52055	-0.00406371	0.605842	308.589
466.5000	1.33475	-0.00403235	0.60228	308.131
466.0000	1.44117	-0.0040283	0.597935	307.854
465.5000	1.65293	-0.00398885	0.59298	307.763
465.0000	1.57348	-0.00395642	0.587785	307.946
464.5000	1.53798	-0.00391544	0.581562	308.324
464.0000	1.46942	-0.0038843	0.573996	308.647
463.5000	1.45062	-0.00386728	0.56548	308.681
463.0000	1.49703	-0.00384382	0.556868	308.35
462.5000	1.31228	-0.00381231	0.549486	307.826
462.0000	1.17532	-0.00376733	0.543059	307.231
461.5000	1.25976	-0.00373345	0.537195	306.713
461.0000	1.25897	-0.00369112	0.531397	306.309
460.5000	1.24955	-0.00364777	0.525187	306.017
460.0000	1.54629	-0.00360929	0.51915	305.824
459.5000	1.30652	-0.00358734	0.513029	305.713
459.0000	1.49734	-0.00354124	0.506022	305.563
458.5000	1.50313	-0.00351255	0.49864	305.336
458.0000	1.70829	-0.00345771	0.490975	304.978
457.5000	1.50027	-0.00341394	0.483483	304.435
457.0000	1.414	-0.00336809	0.475889	303.657
456.5000	1.43053	-0.00332691	0.469474	302.87
456.0000	1.63025	-0.00327118	0.462995	302.189
455.5000	1.64509	-0.00321879	0.454978	301.388
455.0000	1.59203	-0.00315681	0.447482	300.458
454.5000	1.68521	-0.00310134	0.44129	299.521
454.0000	1.60869	-0.00303282	0.435723	298.811
453.5000	1.73377	-0.00298144	0.429437	298.332
453.0000	1.71977	-0.00293378	0.42269	297.878
452.5000	1.73426	-0.00286028	0.416156	297.401
452.0000	1.64277	-0.00279286	0.409844	296.885
451.5000	1.69772	-0.00274052	0.403163	296.339
451.0000	1.61118	-0.00268188	0.396801	295.814
450.5000	1.56365	-0.00261456	0.390336	295.264
450.0000	1.4826	-0.00255334	0.384471	294.721
449.5000	1.3039	-0.00250425	0.379021	294.251
449.0000	1.37131	-0.00245667	0.374128	293.953
448.5000	1.10939	-0.00239807	0.368297	293.714
448.0000	1.28708	-0.00232975	0.362013	293.373
447.5000	1.33274	-0.00228606	0.356668	292.99
447.0000	1.22188	-0.00224504	0.352684	292.795
446.5000	1.27663	-0.00219017	0.34849	292.798
446.0000	1.33498	-0.00215487	0.342206	292.737
445.5000	1.27489	-0.0021138	0.335719	292.391
445.0000	1.09323	-0.00206423	0.329974	291.845
444.5000	0.953276	-0.00202803	0.324523	291.25
444.0000	1.1105	-0.00199476	0.319074	290.63
443.5000	1.08354	-0.00193596	0.313766	289.955
443.0000	0.977261	-0.00189024	0.309193	289.336
442.5000	1.13623	-0.00184485	0.30489	288.75
442.0000	0.942877	-0.00181544	0.300809	288.257
441.5000	0.966225	-0.00178582	0.296215	287.747
441.0000	0.88574	-0.0017526	0.291972	287.288
440.5000	0.771626	-0.0017161	0.287861	286.842
440.0000	0.899621	-0.00168106	0.283467	286.376
439.5000	0.863522	-0.0016431	0.278895	285.901
439.0000	0.746639	-0.00158889	0.27394	285.398
438.5000	0.716733	-0.00152953	0.268682	284.888
438.0000	0.716013	-0.00147721	0.263426	284.397
437.5000	0.82978	-0.00144261	0.258521	283.93
437.0000	1.10959	-0.00139384	0.253217	283.445
436.5000	1.16802	-0.00134757	0.249234	283.048
436.0000	1.2765	-0.00130795	0.245559	282.694
435.5000	1.1234	-0.00128789	0.241346	282.356
435.0000	0.896819	-0.00125111	0.237001	282.043
434.5000	0.958674	-0.00120796	0.232679	281.735
434.0000	1.04437	-0.00117482	0.228265	281.385
433.5000	1.01133	-0.00113674	0.22431	281.048
433.0000	1.1068	-0.00108527	0.220561	280.679
432.5000	1.09652	-0.00104977	0.21677	280.301
432.0000	1.09729	-0.00102581	0.212802	279.912
431.5000	0.991519	-0.000996353	0.208875	279.517
431.0000	1.13748	-0.000976167	0.205145	279.126
430.5000	1.08992	-0.000933231	0.201517	278.734
430.0000	1.01929	-0.000912426	0.198267	278.362
429.5000	0.969685	-0.000878275	0.194799	277.975
429.0000	0.934951	-0.000847003	0.191453	277.594
428.5000	0.953798	-0.000813184	0.188092	277.221
428.0000	0.846962	-0.000789125	0.184154	276.82
427.5000	0.770451	-0.000762367	0.181001	276.47
427.0000	0.700292	-0.000727267	0.178086	276.13
426.5000	0.719529	-0.000704372	0.175113	275.777
426.0000	0.591218	-0.00067952	0.172134	275.405
425.5000	0.677082	-0.000642583	0.169323	275.008
425.0000	0.704745	-0.00062237	0.166186	274.575
424.5000	0.747553	-0.00059564	0.163144	274.117
424.0000	0.81335	-0.000580085	0.160306	273.661
423.5000	0.878254	-0.000549099	0.157964	273.252
423.0000	0.749229	-0.00052365	0.155619	272.908
422.5000	0.655062	-0.000498645	0.15316	272.61
422.0000	0.664892	-0.000485544	0.150666	272.339
421.5000	0.679806	-0.000454458	0.148142	272.073
421.0000	0.779832	-0.000420981	0.145935	271.831
420.5000	0.777577	-0.000402991	0.143547	271.577
420.0000	0.70663	-0.000381261	0.141167	271.309
419.5000	0.708192	-0.000356008	0.138975	271.04
419.0000	0.862632	-0.000332272	0.13677	270.78
418.5000	0.996086	-0.000318597	0.134509	270.55
418.0000	0.922796	-0.000289607	0.132658	270.335
417.5000	0.85216	-0.000261581	0.130606	270.12
417.0000	0.797009	-0.000243361	0.128975	269.929
416.5000	0.986911	-0.000223625	0.127614	269.797
416.0000	0.864085	-0.000212871	0.126048	269.709
415.5000	0.834281	-0.000199009	0.124409	269.629
415.0000	0.829084	-0.000177617	0.122553	269.495
414.5000	0.940408	-0.000164482	0.120947	269.309
414.0000	0.929651	-0.000144467	0.119707	269.115
413.5000	0.803568	-0.000126318	0.118563	268.911
413.0000	0.647036	-0.000114226	0.117535	268.73
412.5000	0.662763	-0.000100526	0.116453	268.568
412.0000	0.725995	-8.12569E-005	0.115492	268.427
411.5000	0.867069	-5.4492E-005	0.11431	268.289
411.0000	0.764452	-6.0212E-005	0.113378	268.176
410.5000	0.656637	-4.21908E-005	0.112488	268.06
410.0000	0.527543	-2.6914E-005	0.111858	267.967
409.5000	0.320268	-2.90954E-005	0.111312	267.892
409.0000	0.304275	-1.64946E-005	0.110631	267.825
408.5000	0.394244	-1.35902E-005	0.109762	267.768
408.0000	0.232216	1.61528E-006	0.108814	267.718
407.5000	0.378481	1.5524E-005	0.107905	267.665
407.0000	0.404369	2.29333E-005	0.10703	267.589
406.5000	0.273129	3.33754E-005	0.106426	267.521
406.0000	0.30183	4.52033E-005	0.105792	267.448
405.5000	0.509687	5.77479E-005	0.104826	267.351
405.0000	0.67243	6.2865E-005	0.103956	267.24
404.5000	0.683263	7.40602E-005	0.103355	267.133
404.0000	0.520806	6.73312E-005	0.103078	266.999
403.5000	0.472216	8.31354E-005	0.102675	266.832
403.0000	0.535735	8.11143E-005	0.102725	266.66
402.5000	0.673281	9.43438E-005	0.102228	266.457
402.0000	0.643849	9.80221E-005	0.102313	266.276
401.5000	0.792426	9.96892E-005	0.102501	266.075
401.0000	0.846777	0.000100478	0.102466	265.893
400.5000	0.853721	0.000106646	0.102439	265.723
400.0000	0.787886	0.000111809	0.102421	265.586
399.5000	0.705804	0.000113092	0.102803	265.449
399.0000	0.56789	0.000123662	0.103248	265.351
398.5000	0.503027	0.000127506	0.103419	265.261
398.0000	0.569234	0.000128332	0.103493	265.189
397.5000	0.501709	0.000121983	0.103714	265.154
397.0000	0.445204	0.000129133	0.104213	265.14
396.5000	0.345883	0.000128255	0.104472	265.152
396.0000	0.30027	0.000129648	0.104728	265.182
395.5000	0.284523	0.000132355	0.104754	265.248
395.0000	0.15455	0.00012623	0.104893	265.34
394.5000	0.248193	0.000122697	0.105187	265.459
394.0000	0.166213	0.00013075	0.105485	265.601
393.5000	0.0755898	0.000127154	0.105533	265.763
393.0000	-0.0645551	0.000118027	0.10536	265.932
392.5000	0.0271713	0.000133172	0.10548	266.103
392.0000	0.0885029	0.000127467	0.105805	266.256
391.5000	0.124471	0.00013586	0.106399	266.398
391.0000	0.0783354	0.000124713	0.106812	266.527
390.5000	0.252144	0.000128938	0.106981	266.645
390.0000	0.238182	0.000132479	0.107244	266.761
389.5000	0.280648	0.000142694	0.107735	266.859
389.0000	0.175619	0.000131485	0.108537	266.963
388.5000	0.0908871	0.000117639	0.108908	267.045
388.0000	0.274867	0.000126004	0.109257	267.131
387.5000	0.315409	0.000130036	0.109771	267.201
387.0000	0.318632	0.000133547	0.110726	267.266
386.5000	0.202656	0.000132587	0.111518	267.326
386.0000	0.204422	0.000126417	0.112588	267.395
385.5000	0.166784	0.000114018	0.113655	267.459
385.0000	0.270406	0.000116523	0.114549	267.502
384.5000	0.286401	0.00012233	0.115395	267.539
384.0000	0.0798659	0.00012316	0.11647	267.585
383.5000	0.229256	0.000127824	0.117175	267.621
383.0000	0.379059	0.000122685	0.117755	267.659
382.5000	0.42585	0.000130379	0.118538	267.707
382.0000	0.293683	0.000128968	0.119746	267.754
381.5000	0.318047	0.000111247	0.1211	267.804
381.0000	0.236454	0.000126428	0.122124	267.853
380.5000	0.273332	0.00012316	0.122928	267.898
380.0000	0.331769	0.000130528	0.124048	267.95
379.5000	0.148278	0.00014047	0.125286	268.009
379.0000	0.0339805	0.000130036	0.126201	268.072
378.5000	0.165905	0.000140482	0.126807	268.136
378.0000	0.169875	0.000142837	0.127471	268.199
377.5000	0.255744	0.000135456	0.128146	268.249
377.0000	0.389436	0.000145926	0.12867	268.286
376.5000	0.355146	0.000149983	0.12944	268.323
376.0000	0.358627	0.000145202	0.130209	268.352
375.5000	0.505152	0.000141297	0.130766	268.38
375.0000	0.417714	0.000134161	0.131379	268.404
374.5000	0.274537	0.000122324	0.132057	268.427
374.0000	0.151154	0.000116386	0.132637	268.437
373.5000	0.319347	0.000109564	0.133015	268.438
373.0000	0.353062	9.96008E-005	0.133374	268.457
372.5000	0.3491	9.92069E-005	0.133687	268.465
372.0000	0.454496	9.05061E-005	0.134095	268.475
371.5000	0.40453	8.47633E-005	0.13442	268.487
371.0000	0.507615	6.66703E-005	0.134912	268.497
370.5000	0.63447	7.24396E-005	0.135643	268.523
370.0000	0.551027	6.3399E-005	0.136113	268.541
369.5000	0.505013	5.76685E-005	0.136475	268.556
369.0000	0.617616	6.69255E-005	0.136995	268.586
368.5000	0.538503	5.65534E-005	0.137776	268.633
368.0000	0.548178	5.05736E-005	0.138375	268.689
367.5000	0.625174	3.62787E-005	0.138993	268.742
367.0000	0.649039	2.74598E-005	0.139935	268.807
366.5000	0.63097	3.0616E-005	0.14056	268.873
366.0000	0.63476	2.27299E-005	0.141081	268.941
365.5000	0.612071	1.62201E-005	0.14173	269.022
365.0000	0.713505	3.05441E-005	0.1422	269.098
364.5000	0.669094	1.96049E-005	0.14274	269.161
364.0000	0.766972	6.79231E-006	0.143383	269.25
363.5000	0.792534	-9.22416E-006	0.144253	269.331
363.0000	0.714421	-1.37952E-005	0.145077	269.412
362.5000	0.658405	-3.36706E-005	0.14571	269.489
362.0000	0.876346	-5.08265E-005	0.146278	269.564
361.5000	0.934172	-4.21886E-005	0.147111	269.645
361.0000	0.79145	-4.84436E-005	0.147802	269.717
360.5000	0.726925	-6.37893E-005	0.148395	269.799
360.0000	0.785227	-5.58824E-005	0.149001	269.874
359.5000	0.783443	-5.3795E-005	0.149507	269.947
359.0000	0.906822	-6.66306E-005	0.149784	270.021
358.5000	0.971471	-7.36022E-005	0.149988	270.098
358.0000	1.03906	-8.23568E-005	0.150134	270.167
357.5000	0.98661	-7.4543E-005	0.150377	270.246
357.0000	1.01197	-9.4428E-005	0.150903	270.327
356.5000	1.06622	-9.97806E-005	0.151621	270.397
356.0000	1.02105	-0.000110087	0.152057	270.474
355.5000	1.01997	-0.000118931	0.152367	270.542
355.0000	1.22414	-0.000118286	0.152576	270.611
354.5000	1.28542	-0.000120319	0.152861	270.689
354.0000	1.29343	-0.000118354	0.15321	270.762
353.5000	1.17707	-0.000116919	0.1535	270.83
353.0000	1.18904	-0.000131632	0.153789	270.906
352.5000	1.19282	-0.000138835	0.15433	271.001
352.0000	1.35757	-0.000157215	0.154683	271.079
351.5000	1.45474	-0.00016406	0.155019	271.151
351.0000	1.52686	-0.000187092	0.155772	271.232
350.5000	1.49119	-0.000208606	0.15653	271.302
350.0000	1.59479	-0.000219159	0.157413	271.38
349.5000	1.58501	-0.000228175	0.158427	271.462
349.0000	1.67361	-0.000241603	0.159535	271.545
348.5000	1.67772	-0.000245877	0.160697	271.625
348.0000	1.70247	-0.000263858	0.161533	271.699
347.5000	1.65999	-0.000280827	0.162668	271.775
347.0000	1.46992	-0.000298855	0.163893	271.855
346.5000	1.38988	-0.000317165	0.164748	271.92
346.0000	1.41073	-0.000329517	0.165746	272.004
345.5000	1.23735	-0.000367497	0.166899	272.087
345.0000	1.29912	-0.000394095	0.168207	272.18
344.5000	1.39459	-0.000397133	0.169329	272.256
344.0000	1.35379	-0.000427103	0.170542	272.325
343.5000	1.2812	-0.000446001	0.171569	272.399
343.0000	1.28351	-0.000466131	0.17241	272.467
342.5000	1.27513	-0.000468754	0.173236	272.547
342.0000	1.21962	-0.0004828	0.174216	272.643
341.5000	1.16485	-0.00049533	0.175156	272.726
341.0000	1.32275	-0.000506914	0.176278	272.808
340.5000	1.40003	-0.000531683	0.177072	272.885
340.0000	1.41928	-0.000550488	0.177892	272.967
339.5000	1.4609	-0.00057121	0.178465	273.051
339.0000	1.55376	-0.00058862	0.179478	273.148
338.5000	1.64968	-0.000594917	0.180583	273.248
338.0000	1.64334	-0.000612879	0.181647	273.348
337.5000	1.69585	-0.000629502	0.182486	273.437
337.0000	1.94694	-0.000645135	0.183333	273.536
336.5000	1.9817	-0.000673724	0.18427	273.623
336.0000	2.32341	-0.000697752	0.185295	273.731
335.5000	2.43762	-0.000710855	0.186309	273.836
335.0000	2.39995	-0.000733081	0.187414	273.949
334.5000	2.44444	-0.000759984	0.188563	274.075
334.0000	2.60321	-0.000793241	0.189692	274.188
333.5000	2.49925	-0.000830307	0.191165	274.301
333.0000	2.46298	-0.000860207	0.192224	274.408
332.5000	2.34777	-0.000901427	0.193141	274.528
332.0000	2.3926	-0.000931628	0.194087	274.644
331.5000	2.58939	-0.00096354	0.195459	274.779
331.0000	2.57789	-0.000984837	0.196939	274.919
330.5000	2.62621	-0.00101212	0.198003	275.043
330.0000	2.59615	-0.00105728	0.199168	275.168
329.5000	2.72111	-0.0010748	0.200425	275.301
329.0000	2.86685	-0.00112761	0.201628	275.44
328.5000	2.8317	-0.00114646	0.202821	275.566
328.0000	2.86781	-0.00117059	0.203908	275.692
327.5000	2.7545	-0.00121231	0.205003	275.801
327.0000	2.79416	-0.00124421	0.206248	275.901
326.5000	2.85992	-0.00127424	0.20777	276.023
326.0000	2.95128	-0.00131432	0.20938	276.149
325.5000	2.92443	-0.00133696	0.210972	276.295
325.0000	2.8837	-0.00136693	0.212195	276.437
324.5000	3.20635	-0.00140095	0.213803	276.601
324.0000	3.23277	-0.00143847	0.215442	276.751
323.5000	3.15356	-0.00146266	0.217259	276.906
323.0000	3.09531	-0.00148791	0.218779	277.06
322.5000	3.11677	-0.00151695	0.220266	277.214
322.0000	3.08064	-0.00155776	0.221745	277.38
321.5000	3.09333	-0.00159687	0.223472	277.547
321.0000	2.90299	-0.00164218	0.225222	277.713
320.5000	2.9452	-0.00167092	0.226971	277.873
320.0000	2.8214	-0.00170183	0.22858	278.034
319.5000	2.6762	-0.00174113	0.230204	278.197
319.0000	2.67275	-0.00175904	0.232056	278.404
318.5000	2.6774	-0.00180968	0.233809	278.611
318.0000	2.68954	-0.00185387	0.235253	278.786
317.5000	2.92756	-0.00188106	0.236803	278.951
317.0000	2.91071	-0.00191103	0.238524	279.105
316.5000	2.95754	-0.00195143	0.240281	279.249
316.0000	3.00326	-0.00198454	0.242189	279.41
315.5000	3.0835	-0.0020116	0.243833	279.579
315.0000	3.13885	-0.00203928	0.245637	279.774
314.5000	3.03758	-0.00207417	0.247396	279.965
314.0000	3.10778	-0.00209377	0.249175	280.149
313.5000	3.12374	-0.00212866	0.2511	280.343
313.0000	3.40262	-0.00214112	0.252977	280.542
312.5000	3.35988	-0.00217107	0.254907	280.758
312.0000	3.29861	-0.00220891	0.257016	280.972
311.5000	3.46495	-0.00222948	0.259099	281.195
311.0000	3.59965	-0.00225142	0.26144	281.42
310.5000	3.63406	-0.00229056	0.263646	281.672
310.0000	3.70441	-0.00229643	0.265837	281.903
309.5000	3.61818	-0.00232913	0.268441	282.168
309.0000	3.56586	-0.00236277	0.271183	282.454
308.5000	3.64693	-0.00239057	0.273818	282.758
308.0000	3.69727	-0.00240793	0.276432	283.056
307.5000	3.48048	-0.00244285	0.279386	283.379
307.0000	3.40313	-0.00247274	0.282333	283.682
306.5000	3.65423	-0.00249128	0.285605	284.017
306.0000	3.89164	-0.00253396	0.289075	284.356
305.5000	3.86316	-0.00256994	0.292608	284.729
305.0000	4.03324	-0.00260467	0.29634	285.11
304.5000	4.02336	-0.00262136	0.300652	285.531
304.0000	4.05367	-0.00265054	0.305212	285.968
303.5000	4.10657	-0.00268223	0.309898	286.418
303.0000	3.94032	-0.0027272	0.314828	286.914
302.5000	4.01332	-0.00276923	0.319853	287.425
302.0000	4.05595	-0.00279464	0.32518	287.946
301.5000	3.98686	-0.00283501	0.330943	288.505
301.0000	4.02833	-0.00286015	0.336553	289.072
300.5000	4.08354	-0.00289415	0.341698	289.594
300.0000	4.03433	-0.00292889	0.348057	290.208
299.5000	4.11151	-0.00296994	0.354162	290.808
299.0000	4.2917	-0.00297899	0.360193	291.417
298.5000	4.35097	-0.00300749	0.366377	292.053
298.0000	4.38754	-0.00303954	0.372296	292.653
297.5000	4.33429	-0.00305156	0.378475	293.274
297.0000	4.23223	-0.00306665	0.384401	293.827
296.5000	4.14045	-0.00307326	0.389852	294.354
296.0000	4.1214	-0.00308433	0.395164	294.874
295.5000	4.1162	-0.00306917	0.400555	295.375
295.0000	4.23594	-0.00304905	0.405405	295.808
294.5000	4.32825	-0.00301417	0.410188	296.247
294.0000	4.39547	-0.00297747	0.41506	296.737
293.5000	4.48736	-0.00294861	0.418849	297.137
293.0000	4.44183	-0.00289856	0.42293	297.558
292.5000	4.56325	-0.00286313	0.426785	297.979
292.0000	4.54481	-0.00279906	0.430244	298.374
291.5000	4.5501	-0.00274344	0.433625	298.749
291.0000	4.32338	-0.00269971	0.436907	299.112
290.5000	4.09002	-0.00266456	0.440324	299.483
290.0000	3.93364	-0.00259702	0.443703	299.831
289.5000	3.8065	-0.00253873	0.446598	300.16
289.0000	3.73716	-0.00246562	0.449332	300.481
288.5000	3.63531	-0.00239907	0.45229	300.836
288.0000	3.45883	-0.00232458	0.455208	301.19
287.5000	3.47357	-0.00225657	0.458319	301.575
287.0000	3.2263	-0.00219928	0.461322	301.99
286.5000	3.12294	-0.00214034	0.464117	302.404
286.0000	2.94893	-0.00207739	0.467139	302.805
285.5000	2.788	-0.00200532	0.470433	303.182
285.0000	2.55877	-0.0019383	0.473938	303.586
284.5000	2.26522	-0.00188727	0.477053	303.952
284.0000	2.21432	-0.00181927	0.480502	304.352
283.5000	2.12898	-0.0017496	0.484248	304.768
283.0000	1.91495	-0.00168775	0.487864	305.176
282.5000	2.03068	-0.0015873	0.491835	305.616
282.0000	2.22162	-0.00148298	0.495885	306.098
281.5000	2.26642	-0.00142646	0.499687	306.558
281.0000	2.1171	-0.00136434	0.503899	307.039
280.5000	2.00792	-0.00130207	0.508399	307.573
280.0000	1.97203	-0.00121868	0.513233	308.138
279.5000	1.8694	-0.00115414	0.51819	308.726
279.0000	1.70098	-0.00108113	0.523175	309.325
278.5000	1.86073	-0.000996801	0.528872	309.991
278.0000	1.82222	-0.000927918	0.535573	310.72
277.5000	1.75236	-0.000856399	0.541993	311.419
277.0000	1.75626	-0.000788138	0.548796	312.188
276.5000	1.84409	-0.000691067	0.555965	313.01
276.0000	1.74287	-0.000615968	0.562955	313.801
275.5000	1.52055	-0.000546107	0.571254	314.708
275.0000	1.39199	-0.000465502	0.580037	315.673
274.5000	1.45159	-0.000382528	0.589149	316.695
274.0000	1.19183	-0.000314788	0.598979	317.826
273.5000	0.956849	-0.000262251	0.608724	318.91
273.0000	0.891535	-0.000166728	0.619603	320.115
272.5000	0.627765	-7.43594E-005	0.631028	321.39
272.0000	0.545148	1.04541E-006	0.643008	322.744
271.5000	0.792638	8.14314E-005	0.656448	324.261
271.0000	0.811429	0.000147099	0.670239	325.786
270.5000	0.753169	0.000212338	0.68488	327.39
270.0000	0.691363	0.000286124	0.699899	329.075
269.5000	0.447268	0.000332674	0.715438	330.858
269.0000	0.492628	0.000415411	0.731181	332.653
268.5000	0.00339715	0.00047887	0.748787	334.651
268.0000	-0.103451	0.000521297	0.767518	336.771
267.5000	-0.21989	0.000586085	0.7871	339.002
267.0000	-0.297904	0.000647047	0.808391	341.472
266.5000	-0.412771	0.000697761	0.830378	344.056
266.0000	-0.310235	0.000749278	0.851581	346.507
265.5000	-0.73661	0.000779828	0.874763	349.17
265.0000	-1.18218	0.000830613	0.89953	352.075
264.5000	-0.924979	0.000858315	0.923654	354.948
264.0000	-1.01978	0.000910772	0.948155	357.884
263.5000	-1.10358	0.000967854	0.974489	361.029
263.0000	-1.4318	0.000996979	0.998598	363.931
262.5000	-1.06889	0.00100062	1.02529	367.207
262.0000	-1.06867	0.000992675	1.05065	370.387
261.5000	-1.07721	0.0009943	1.07683	373.653
261.0000	-1.32114	0.000993454	1.10238	376.811
260.5000	-1.1264	0.00100141	1.12955	380.21
260.0000	-0.694324	0.000970986	1.15714	383.703
259.5000	-0.602066	0.00100328	1.1851	387.283
259.0000	-0.657601	0.000990923	1.21349	390.972
258.5000	-0.32494	0.00094432	1.2431	394.798
258.0000	0.090897	0.000896136	1.27368	398.775
257.5000	0.0144594	0.000862556	1.30352	402.676
257.0000	0.264576	0.000831283	1.33615	406.974
256.5000	0.218824	0.000754757	1.3682	411.215
256.0000	0.0699073	0.000667252	1.40356	415.902
255.5000	0.069147	0.000640039	1.44046	420.811
255.0000	0.348549	0.000542569	1.47893	425.983
254.5000	0.739438	0.000487052	1.51705	431.148
254.0000	0.106837	0.000487029	1.55659	436.543
253.5000	0.052086	0.0003735	1.60258	442.807
253.0000	0.86994	0.000301712	1.64553	448.746
252.5000	0.397716	0.000156809	1.71144	458.025
252.0000	0.465753	3.15734E-005	1.76826	466.114
251.5000	1.50784	-0.000101633	1.81966	473.496
251.0000	1.95578	-0.000227653	1.87319	481.226
250.5000	2.71371	-0.000423894	1.92827	489.308
250.0000	1.01222	-0.000523984	1.98198	497.311
249.5000	1.65835	-0.000584984	2.03721	505.651
249.0000	2.73609	-0.000705849	2.09726	514.831
248.5000	2.97299	-0.000834247	2.15627	523.943
248.0000	3.92579	-0.000814571	2.22025	533.973
247.5000	4.4224	-0.000842892	2.2827	543.937
247.0000	5.14394	-0.000943135	2.35039	554.919
246.5000	3.85571	-0.00132959	2.4205	566.447
246.0000	6.50686	-0.00161301	2.49289	578.524
245.5000	7.10802	-0.00163114	2.57111	591.88
245.0000	5.86945	-0.0014799	2.65227	605.999
244.5000	7.40566	-0.0015764	2.73619	620.872
244.0000	9.1201	-0.00167399	2.82204	636.435
243.5000	5.74525	-0.00178822	2.90554	651.914
243.0000	4.85627	-0.00187108	2.99064	668.067
242.5000	2.32027	-0.00172966	3.08559	686.523
242.0000	3.96403	-0.00155424	3.16823	702.957
241.5000	3.39057	-0.00171202	3.25988	721.602
241.0000	0.719185	-0.00171332	3.34208	738.717
240.5000	-3.28974	-0.00164382	3.43108	757.778
240.0000	-1.01375	-0.00151559	3.50985	775.047
239.5000	-2.67505	-0.00119336	3.5977	794.786
239.0000	-1.51685	-0.000975364	3.67025	811.455
238.5000	-0.21709	-0.000518258	3.74252	828.469
238.0000	2.6877	-0.000404715	3.81336	845.64
237.5000	1.27897	-0.000221167	3.87234	860.343
237.0000	0.502964	-0.000310436	3.92898	874.835
236.5000	2.56761	-0.000266029	3.97992	888.238
236.0000	6.33448	-0.000153281	4.02332	899.966
235.5000	3.31318	0.00026564	4.06695	912.224
235.0000	1.30643	0.000468147	4.0927	919.731
234.5000	0.333633	0.000540978	4.11678	926.976
234.0000	3.6094	0.000586409	4.13881	933.86
233.5000	3.63614	0.000669079	4.15903	940.5
233.0000	2.63781	0.000458623	4.17504	946.256
232.5000	3.64309	0.000571074	4.18639	950.891
232.0000	7.13384	0.000633075	4.19442	955.091
231.5000	5.08931	0.000683545	4.19776	957.816
231.0000	6.96455	0.000242845	4.19841	960.125
230.5000	8.52775	0.000134207	4.19622	961.841
230.0000	2.5914	0.000141066	4.19207	963.078
229.5000	0.113425	0.000274302	4.18632	964.049
229.0000	-1.08741	0.000302728	4.17911	964.72
228.5000	-1.13306	0.000361785	4.17129	965.226
228.0000	0.886744	0.000475996	4.16326	965.59
227.5000	-4.32746	0.000530295	4.15376	965.858
227.0000	-6.88943	0.000343473	4.14377	966.039
226.5000	-4.77759	-4.4332E-005	4.1331	966.201
226.0000	-1.1712	-7.79449E-006	4.12302	966.325
225.5000	-4.75745	0.000473714	4.11176	966.355
225.0000	-5.05546	5.36832E-005	4.09994	966.402
224.5000	-3.56322	0.000312979	4.08801	966.5
224.0000	-4.98662	0.000361916	4.07593	966.544
223.5000	-5.40423	0.000402343	4.06426	966.623
223.0000	-2.5357	0.000109371	4.05276	966.703
222.5000	-3.97989	0.000151069	4.03849	966.795
222.0000	-2.76228	-0.000151077	4.02543	966.897
221.5000	-1.72143	-0.000681942	4.01142	966.94
221.0000	-3.73596	-0.000615427	3.99953	967.002
220.5000	-0.867328	-0.000832316	3.9876	967.087
220.0000	-8.06372	-0.000962249	3.97484	967.139

##### Extended Information
[Comments]
Sample name	JS187+JS190_5E-5_H2O_50-50_100EQDT+72H
Comment
User
Division
Company	Labo systeme complexes hors equilibre

[Detailed Information]
Creation date	1/26/2024 10:37 AM

Data array type	Linear data array * 4
Horizontal axis	Wavelength [nm]
Vertical axis(1)	CD [mdeg]
Vertical axis(2)	LD [dOD]
Vertical axis(3)	Abs
Vertical axis(4)	HT [V]
Start	700 nm
End	220 nm
Data interval	0.5 nm
Data points	961     

[Measurement Information]
Instrument name	CD Jasco
Model name	J-1500
Serial No.	A005261638

Detector	PM-539
Detector S/N	A0052PM539
  Lock-in amp.	X mode
  HT volt	Auto

Detector	EXPML-535
Detector S/N	A0001
  Lock-in amp.	X mode
  HT volt	Auto

Measurement date	1/26/2024 10:37 AM

Overload detect	1
Photometric mode	CD, LD, Abs, HT
Measure range	700 - 220 nm
Data pitch	0.5 nm
CD scale	200 mdeg/1.0 dOD
FL scale	200 mdeg/1.0 dOD
D.I.T.	1 sec
Bandwidth	1.00 nm
Start mode	Immediately
Scanning speed	500 nm/min
Baseline correction	Baseline
Shutter control	Auto


