TITLE	JS187+JS190_5E-5_H2O_60-40_100EQDT+72H
DATA TYPE	
ORIGIN	JASCO
OWNER	
DATE	24/01/26
TIME	09:52:12
SPECTROMETER/DATA SYSTEM	
LOCALE	1033
RESOLUTION	
DELTAX	-0.5
XUNITS	NANOMETERS
YUNITS	CD [mdeg]
Y2UNITS	LD [dOD]
Y3UNITS	ABSORBANCE
Y4UNITS	HT [V]
FIRSTX	  700.0000
LASTX	  220.0000
NPOINTS	     961
FIRSTY	     1.39450
MAXY	    21.52597
MINY	    -9.47627
XYDATA
700.0000	1.3945	-0.000695093	0.000432546	304.387
699.5000	1.10081	-0.00069923	-0.000221529	304.119
699.0000	1.01134	-0.000698428	-0.000881451	303.806
698.5000	1.14987	-0.000675551	-0.00108773	303.451
698.0000	1.27132	-0.000675179	-0.00165998	303.062
697.5000	1.22901	-0.000662279	-0.00276483	302.648
697.0000	1.19748	-0.000651352	-0.0041919	302.185
696.5000	1.19821	-0.000649339	-0.00493127	301.705
696.0000	1.28046	-0.000635	-0.0048793	301.182
695.5000	1.38752	-0.000644686	-0.00491495	300.653
695.0000	1.45034	-0.000649823	-0.00444184	300.173
694.5000	1.25905	-0.00065405	-0.00422524	299.69
694.0000	1.40738	-0.000660976	-0.00296388	299.228
693.5000	1.59307	-0.000649062	-0.00138519	298.802
693.0000	1.59714	-0.0006433	0.000732911	298.425
692.5000	1.53911	-0.000643818	0.0029385	298.08
692.0000	1.49473	-0.000623228	0.00517343	297.777
691.5000	1.58562	-0.000637905	0.00767898	297.51
691.0000	1.51196	-0.000644012	0.010094	297.254
690.5000	1.43781	-0.000630176	0.0117496	297.03
690.0000	1.64601	-0.000634224	0.0130911	296.825
689.5000	1.34998	-0.000647044	0.0143	296.631
689.0000	1.02701	-0.0006483	0.0160992	296.475
688.5000	1.19239	-0.00066467	0.0177918	296.389
688.0000	0.855864	-0.000642378	0.0202546	296.403
687.5000	0.807146	-0.000647946	0.0232918	296.519
687.0000	0.640532	-0.000644887	0.0261172	296.693
686.5000	0.549384	-0.000651993	0.0285133	296.917
686.0000	0.528636	-0.000668529	0.0297105	297.161
685.5000	0.518611	-0.000690798	0.0299054	297.414
685.0000	0.244958	-0.000698507	0.0297472	297.669
684.5000	0.00523298	-0.000707971	0.0290405	297.916
684.0000	0.470116	-0.000706146	0.0277269	298.143
683.5000	0.437145	-0.000714419	0.0267654	298.366
683.0000	0.348203	-0.000716104	0.0257912	298.6
682.5000	0.297064	-0.000717274	0.0252812	298.833
682.0000	0.686994	-0.000724828	0.0247039	299.097
681.5000	0.774042	-0.000728552	0.0247923	299.377
681.0000	0.936903	-0.000704431	0.0250571	299.686
680.5000	1.15326	-0.000693355	0.0253259	299.972
680.0000	1.20217	-0.000692084	0.0244016	300.214
679.5000	1.16949	-0.000702315	0.0228179	300.387
679.0000	0.964909	-0.000682512	0.0198812	300.478
678.5000	1.02453	-0.000690437	0.0179183	300.527
678.0000	1.25948	-0.000646144	0.0160546	300.545
677.5000	1.42174	-0.000627806	0.0148955	300.539
677.0000	1.46492	-0.000604991	0.0144029	300.523
676.5000	1.62502	-0.000591365	0.0145932	300.502
676.0000	1.60909	-0.000595148	0.0148095	300.479
675.5000	1.44658	-0.000583512	0.0149487	300.449
675.0000	1.37093	-0.000599439	0.0154512	300.439
674.5000	1.2793	-0.000611012	0.016439	300.444
674.0000	1.14753	-0.000585556	0.0174427	300.453
673.5000	0.859711	-0.000574166	0.0183634	300.455
673.0000	0.838995	-0.000570592	0.0184643	300.474
672.5000	0.871266	-0.000583968	0.0184941	300.496
672.0000	0.902458	-0.000567743	0.0188075	300.522
671.5000	1.06026	-0.000565354	0.019587	300.549
671.0000	0.93356	-0.000586164	0.0204794	300.59
670.5000	0.97701	-0.000580538	0.0215949	300.634
670.0000	0.905362	-0.000571339	0.0226061	300.692
669.5000	0.946315	-0.000582239	0.0230474	300.749
669.0000	0.907693	-0.000596183	0.0235129	300.807
668.5000	0.977543	-0.000619713	0.023951	300.865
668.0000	0.812303	-0.000646252	0.0243924	300.957
667.5000	0.978738	-0.00064193	0.0247177	301.054
667.0000	1.01436	-0.000642084	0.0248606	301.161
666.5000	1.09598	-0.000634566	0.0249077	301.258
666.0000	1.3116	-0.000621699	0.0241261	301.352
665.5000	1.18746	-0.000645333	0.0238428	301.453
665.0000	1.31153	-0.000637251	0.0244082	301.559
664.5000	1.40883	-0.000651135	0.0252838	301.666
664.0000	1.04516	-0.000662704	0.0254845	301.773
663.5000	0.999371	-0.000666762	0.0246441	301.874
663.0000	1.1095	-0.000674053	0.0244982	301.962
662.5000	1.2043	-0.000654545	0.0242319	302.042
662.0000	1.19467	-0.00067591	0.0237497	302.098
661.5000	0.791985	-0.00069537	0.0237918	302.14
661.0000	0.601764	-0.000713031	0.0235001	302.177
660.5000	0.630057	-0.000692752	0.0229494	302.198
660.0000	0.737655	-0.000680911	0.0225865	302.202
659.5000	0.598519	-0.000680105	0.0218213	302.199
659.0000	0.598587	-0.000681751	0.0212031	302.175
658.5000	0.626969	-0.000689086	0.0207544	302.132
658.0000	0.244491	-0.000693165	0.0207354	302.079
657.5000	0.57691	-0.000689925	0.0201826	302.01
657.0000	0.357225	-0.000689815	0.0204697	301.917
656.5000	0.484052	-0.000683315	0.0194919	301.788
656.0000	0.779262	-0.000655665	0.0186854	301.651
655.5000	0.870448	-0.000670315	0.0191436	301.483
655.0000	0.813711	-0.000667764	0.0188708	301.297
654.5000	0.785972	-0.000656613	0.0180346	301.107
654.0000	0.769671	-0.000666035	0.0178901	300.905
653.5000	1.0385	-0.00066476	0.0186113	300.727
653.0000	1.02812	-0.000643934	0.0197132	300.565
652.5000	1.08128	-0.000617897	0.0206683	300.416
652.0000	1.13858	-0.000622339	0.0218811	300.301
651.5000	1.11682	-0.000619014	0.0235072	300.207
651.0000	0.91816	-0.000640202	0.0256575	300.146
650.5000	0.831508	-0.00062711	0.026933	300.099
650.0000	1.02063	-0.000636672	0.0288124	300.095
649.5000	0.904884	-0.00062879	0.0299999	300.099
649.0000	0.952115	-0.000623426	0.0315267	300.135
648.5000	1.08085	-0.000634612	0.0322319	300.204
648.0000	1.18799	-0.000634021	0.0333642	300.304
647.5000	0.935281	-0.000622082	0.0343883	300.419
647.0000	0.837062	-0.00061593	0.0349435	300.562
646.5000	0.933838	-0.000621383	0.0356619	300.742
646.0000	1.09297	-0.000622983	0.0371624	300.913
645.5000	0.809616	-0.000610235	0.0376735	301.064
645.0000	0.715609	-0.00062225	0.0371095	301.208
644.5000	0.884995	-0.000605263	0.0367715	301.327
644.0000	0.700328	-0.000611728	0.0366347	301.427
643.5000	0.698403	-0.000608746	0.0360953	301.501
643.0000	0.918274	-0.000610807	0.0355557	301.547
642.5000	1.226	-0.000582303	0.0350417	301.566
642.0000	1.29457	-0.00057673	0.0348058	301.575
641.5000	1.53596	-0.000583523	0.0344469	301.564
641.0000	1.51176	-0.000592574	0.0344069	301.537
640.5000	1.27026	-0.000576796	0.0347959	301.5
640.0000	1.41107	-0.000578356	0.03543	301.452
639.5000	1.40159	-0.000601459	0.0362874	301.384
639.0000	1.60019	-0.00058988	0.0368917	301.307
638.5000	1.78946	-0.000612483	0.0378689	301.212
638.0000	1.5682	-0.000614408	0.038249	301.115
637.5000	1.83304	-0.000588631	0.0386272	301.035
637.0000	1.95824	-0.000566357	0.0397769	300.943
636.5000	1.98744	-0.000591382	0.0406022	300.85
636.0000	1.89142	-0.00060378	0.040906	300.774
635.5000	2.00028	-0.000603135	0.0413113	300.699
635.0000	1.78918	-0.000592413	0.0422709	300.641
634.5000	1.52795	-0.000606243	0.0432085	300.595
634.0000	1.29162	-0.000609792	0.0440232	300.549
633.5000	1.26785	-0.0006186	0.0444513	300.504
633.0000	1.33043	-0.000623262	0.0453468	300.457
632.5000	1.186	-0.00062345	0.0456226	300.413
632.0000	1.46924	-0.000610489	0.0458699	300.367
631.5000	1.53477	-0.000600512	0.046506	300.329
631.0000	1.64001	-0.000584463	0.0470645	300.289
630.5000	1.40787	-0.000591492	0.0476489	300.253
630.0000	1.18258	-0.000591764	0.0483581	300.222
629.5000	1.17389	-0.000595319	0.0491564	300.185
629.0000	1.10838	-0.00060055	0.0496095	300.138
628.5000	1.11275	-0.000610633	0.0500045	300.105
628.0000	1.26384	-0.000584907	0.0506881	300.073
627.5000	1.34248	-0.000573866	0.0515006	300.021
627.0000	1.32678	-0.000595425	0.0519576	299.983
626.5000	1.50954	-0.000591596	0.051985	299.935
626.0000	1.49046	-0.000592543	0.0520641	299.883
625.5000	1.51383	-0.000602333	0.052799	299.835
625.0000	1.42691	-0.000600642	0.0538034	299.806
624.5000	1.53224	-0.000606207	0.0548385	299.782
624.0000	1.47121	-0.000595357	0.0558039	299.771
623.5000	1.27975	-0.000612129	0.0568159	299.771
623.0000	0.995219	-0.000610643	0.0578702	299.789
622.5000	1.00687	-0.000607719	0.0590174	299.814
622.0000	0.923692	-0.000618267	0.0599676	299.857
621.5000	1.05395	-0.000611158	0.0608025	299.895
621.0000	1.25994	-0.000609941	0.0617607	299.949
620.5000	1.31573	-0.000620613	0.0625181	300.021
620.0000	1.20525	-0.00062782	0.0632445	300.112
619.5000	1.09082	-0.000629299	0.0642446	300.221
619.0000	1.13907	-0.000645952	0.0658769	300.362
618.5000	1.24693	-0.00064469	0.0677574	300.503
618.0000	1.22865	-0.000640973	0.0697279	300.654
617.5000	1.38513	-0.000652654	0.0705721	300.801
617.0000	1.21333	-0.000640509	0.0712822	300.967
616.5000	1.39065	-0.000636089	0.0719476	301.125
616.0000	1.33456	-0.000651355	0.0730412	301.28
615.5000	1.41307	-0.000651604	0.0736516	301.427
615.0000	1.79078	-0.000650515	0.0742047	301.577
614.5000	2.07154	-0.000661598	0.0746272	301.732
614.0000	2.02359	-0.000667537	0.0749877	301.878
613.5000	2.15698	-0.000669464	0.0757362	302.038
613.0000	2.03657	-0.000673431	0.076454	302.212
612.5000	1.97478	-0.000660076	0.0771554	302.374
612.0000	2.38955	-0.000652586	0.0780029	302.54
611.5000	2.44135	-0.000666885	0.0789498	302.684
611.0000	2.37596	-0.000684128	0.0793574	302.827
610.5000	2.45351	-0.000681619	0.0796774	302.968
610.0000	2.53622	-0.00068825	0.079714	303.09
609.5000	2.55913	-0.000682627	0.0805409	303.225
609.0000	2.449	-0.000689293	0.0813328	303.354
608.5000	2.51768	-0.00070371	0.0824566	303.479
608.0000	2.54795	-0.000691712	0.0831508	303.594
607.5000	2.477	-0.000703043	0.0833552	303.701
607.0000	2.59213	-0.000716569	0.0840707	303.822
606.5000	2.20187	-0.000719578	0.0849284	303.943
606.0000	2.26722	-0.000710213	0.086453	304.061
605.5000	2.14342	-0.000702572	0.0874236	304.156
605.0000	2.25548	-0.000694958	0.0886326	304.239
604.5000	2.4415	-0.000689562	0.0896525	304.326
604.0000	2.11669	-0.000699279	0.090957	304.413
603.5000	1.89051	-0.000700677	0.0924052	304.497
603.0000	2.0377	-0.000684778	0.093454	304.582
602.5000	1.99454	-0.00067387	0.0950597	304.675
602.0000	2.3295	-0.000670518	0.0967472	304.758
601.5000	2.14468	-0.000687426	0.0982453	304.836
601.0000	2.14991	-0.000681583	0.0997038	304.91
600.5000	2.32467	-0.000655304	0.1016	304.972
600.0000	2.23419	-0.00064341	0.103198	305.03
599.5000	2.22542	-0.000625185	0.105711	305.09
599.0000	2.13736	-0.000602093	0.107777	305.142
598.5000	2.19481	-0.000593108	0.110179	305.168
598.0000	2.22019	-0.000585365	0.112205	305.198
597.5000	2.43788	-0.00057705	0.114172	305.24
597.0000	2.4923	-0.000599731	0.116597	305.297
596.5000	2.42704	-0.00061972	0.119004	305.327
596.0000	2.50063	-0.000601234	0.1214	305.351
595.5000	2.57117	-0.000598564	0.123705	305.382
595.0000	2.59374	-0.000601231	0.126255	305.397
594.5000	2.69488	-0.000606488	0.128802	305.412
594.0000	2.89773	-0.000585437	0.130877	305.435
593.5000	2.69505	-0.000584031	0.133569	305.461
593.0000	2.67773	-0.000584851	0.136824	305.509
592.5000	3.01345	-0.000575025	0.139598	305.577
592.0000	3.03386	-0.000581263	0.142312	305.662
591.5000	3.13321	-0.000600797	0.144589	305.734
591.0000	3.21492	-0.00060149	0.14741	305.813
590.5000	3.17348	-0.00061267	0.150168	305.928
590.0000	3.14169	-0.000600269	0.15321	306.06
589.5000	3.23358	-0.000603059	0.156247	306.177
589.0000	3.14965	-0.000581478	0.159473	306.317
588.5000	3.15013	-0.000559406	0.162549	306.467
588.0000	3.32416	-0.000550645	0.166145	306.653
587.5000	3.4413	-0.000535757	0.16988	306.867
587.0000	3.53887	-0.000532275	0.173769	307.134
586.5000	3.43632	-0.000515856	0.177402	307.384
586.0000	3.20491	-0.000494377	0.181696	307.649
585.5000	3.43818	-0.000479378	0.185708	307.939
585.0000	3.67695	-0.000449094	0.189624	308.235
584.5000	3.815	-0.000436061	0.193431	308.522
584.0000	3.83812	-0.000424638	0.197909	308.85
583.5000	3.94421	-0.000398864	0.202712	309.206
583.0000	4.19649	-0.000371787	0.208103	309.599
582.5000	4.31085	-0.000354105	0.213406	310.023
582.0000	4.48454	-0.000347432	0.218641	310.437
581.5000	4.59583	-0.000297934	0.224437	310.91
581.0000	4.6411	-0.000292379	0.230737	311.408
580.5000	5.04094	-0.000278275	0.237053	311.914
580.0000	4.9978	-0.000251831	0.243182	312.422
579.5000	5.29503	-0.000222629	0.24933	312.946
579.0000	5.62038	-0.000172706	0.255632	313.475
578.5000	6.00652	-0.00014442	0.262605	314.029
578.0000	6.50065	-0.000106953	0.269675	314.624
577.5000	6.97446	-6.95777E-005	0.276746	315.277
577.0000	7.13768	-3.35124E-005	0.284546	315.915
576.5000	7.38523	3.75138E-006	0.293116	316.625
576.0000	7.80796	3.42479E-005	0.301379	317.312
575.5000	8.23199	8.1146E-005	0.310171	318.037
575.0000	8.59265	0.000123111	0.318161	318.741
574.5000	8.89446	0.000185263	0.327142	319.513
574.0000	9.45538	0.000238147	0.336332	320.278
573.5000	10.0197	0.000280393	0.345503	321.054
573.0000	10.5844	0.00033445	0.354913	321.902
572.5000	11.3453	0.00038868	0.363782	322.707
572.0000	11.9498	0.000450334	0.373935	323.647
571.5000	12.3714	0.000479499	0.384119	324.57
571.0000	13.1513	0.00052467	0.395258	325.531
570.5000	13.6196	0.000578898	0.406341	326.542
570.0000	14.232	0.000618839	0.417041	327.531
569.5000	14.7664	0.000668243	0.428803	328.565
569.0000	15.1989	0.000726991	0.440582	329.598
568.5000	15.5844	0.000763101	0.451419	330.605
568.0000	16.1552	0.000791749	0.462339	331.651
567.5000	16.6666	0.000821075	0.47346	332.713
567.0000	17.2952	0.000854392	0.48453	333.732
566.5000	17.8145	0.000842835	0.495525	334.729
566.0000	18.4382	0.000879225	0.506273	335.702
565.5000	18.9278	0.000901331	0.516648	336.674
565.0000	19.1756	0.000901772	0.526938	337.605
564.5000	19.2421	0.000918098	0.537113	338.519
564.0000	19.8322	0.000910469	0.546756	339.351
563.5000	20.018	0.0009209	0.555591	340.136
563.0000	19.9247	0.000922245	0.564338	340.942
562.5000	19.9997	0.000896733	0.572545	341.673
562.0000	20.1948	0.000882562	0.580358	342.358
561.5000	19.8899	0.000847431	0.588935	343.073
561.0000	19.7367	0.000792568	0.596542	343.73
560.5000	19.8301	0.000768357	0.603556	344.338
560.0000	19.833	0.000745808	0.610472	344.907
559.5000	19.9141	0.000734673	0.617078	345.399
559.0000	19.4807	0.00069179	0.622679	345.812
558.5000	19.1951	0.000626701	0.627292	346.16
558.0000	19.2211	0.000603703	0.631212	346.446
557.5000	18.959	0.000531101	0.635001	346.684
557.0000	18.5852	0.000476426	0.638407	346.867
556.5000	18.3006	0.000429127	0.640945	347.01
556.0000	17.9	0.000384911	0.642493	347.102
555.5000	17.3717	0.000310398	0.64389	347.142
555.0000	17.2497	0.000274793	0.645051	347.137
554.5000	16.7051	0.000221399	0.646026	347.072
554.0000	16.4787	0.000156307	0.646012	346.962
553.5000	16.2326	0.000112507	0.645441	346.792
553.0000	16.3321	7.07356E-005	0.644675	346.611
552.5000	15.8742	3.0073E-005	0.644179	346.407
552.0000	15.6265	-3.06391E-006	0.643099	346.135
551.5000	15.2245	-4.76265E-005	0.641821	345.856
551.0000	15.2042	-7.88837E-005	0.639981	345.561
550.5000	15.1879	-0.000119839	0.637898	345.224
550.0000	15.0324	-0.00011622	0.635904	344.867
549.5000	14.7786	-0.000141673	0.634055	344.507
549.0000	14.3407	-0.000143754	0.631557	344.141
548.5000	14.6602	-0.000154496	0.629007	343.782
548.0000	14.3091	-0.00021147	0.62736	343.393
547.5000	14.153	-0.000222422	0.625777	343.036
547.0000	14.2175	-0.000201643	0.624271	342.666
546.5000	14.2923	-0.000226499	0.62246	342.329
546.0000	14.5223	-0.000227684	0.620282	342.027
545.5000	14.4086	-0.000227954	0.619109	341.718
545.0000	14.4161	-0.00020809	0.61802	341.466
544.5000	14.5582	-0.000214581	0.617005	341.21
544.0000	14.6877	-0.000212448	0.615817	340.983
543.5000	14.7113	-0.000206306	0.615031	340.785
543.0000	14.6367	-0.000197108	0.614606	340.608
542.5000	14.7682	-0.000165262	0.614736	340.459
542.0000	14.9941	-0.000150035	0.614767	340.335
541.5000	15.0881	-0.000139213	0.615022	340.255
541.0000	15.2989	-0.000106775	0.615276	340.197
540.5000	15.2458	-0.000108329	0.616503	340.166
540.0000	15.3546	-6.25773E-005	0.617913	340.138
539.5000	15.4799	-2.73368E-005	0.619364	340.168
539.0000	15.7688	-3.60468E-005	0.620774	340.229
538.5000	16.2709	-4.02642E-005	0.622697	340.324
538.0000	16.3612	6.1684E-006	0.625073	340.422
537.5000	16.5997	2.06542E-005	0.627635	340.551
537.0000	16.8646	2.57293E-005	0.630294	340.713
536.5000	16.6036	6.25179E-005	0.633331	340.898
536.0000	16.6621	8.0067E-005	0.63687	341.118
535.5000	17.2127	8.88794E-005	0.64052	341.359
535.0000	17.4836	0.000115898	0.644654	341.632
534.5000	17.9661	0.000131395	0.648494	341.887
534.0000	18.1676	0.000129231	0.652737	342.188
533.5000	17.9326	0.000126561	0.656983	342.512
533.0000	17.9916	0.000110057	0.661124	342.836
532.5000	18.218	0.000120309	0.66547	343.188
532.0000	18.4974	0.000119063	0.670366	343.584
531.5000	18.6365	0.000109187	0.675418	343.983
531.0000	18.7204	0.000116935	0.681265	344.401
530.5000	18.4094	0.000110779	0.686689	344.817
530.0000	17.9811	7.46088E-005	0.692118	345.251
529.5000	17.898	5.09927E-005	0.697629	345.695
529.0000	18.1181	5.29543E-005	0.702962	346.092
528.5000	18.1229	4.25118E-005	0.708246	346.506
528.0000	18.4145	9.61726E-006	0.713372	346.908
527.5000	18.3711	-5.70017E-006	0.718737	347.308
527.0000	18.2664	-5.36334E-005	0.724587	347.745
526.5000	18.0589	-9.98809E-005	0.729942	348.168
526.0000	17.809	-0.000144891	0.735762	348.607
525.5000	17.4838	-0.000180096	0.741425	349.029
525.0000	17.5962	-0.000209663	0.7469	349.435
524.5000	17.6846	-0.000262442	0.752109	349.801
524.0000	17.1011	-0.000309748	0.756862	350.126
523.5000	17.1036	-0.000346132	0.761396	350.461
523.0000	16.9684	-0.000410719	0.765641	350.766
522.5000	16.5098	-0.000457707	0.769476	351.057
522.0000	16.5056	-0.000485853	0.773687	351.358
521.5000	16.3422	-0.000528465	0.778068	351.653
521.0000	15.9026	-0.000569009	0.781949	351.916
520.5000	15.3406	-0.000634474	0.785815	352.178
520.0000	15.2106	-0.000676267	0.789117	352.392
519.5000	14.9919	-0.000726337	0.79264	352.601
519.0000	14.3922	-0.000778439	0.795819	352.801
518.5000	13.9165	-0.000836337	0.798443	352.976
518.0000	13.4639	-0.000902321	0.801454	353.156
517.5000	12.6284	-0.000957044	0.804523	353.333
517.0000	12.1503	-0.00101752	0.807679	353.495
516.5000	11.8301	-0.00110449	0.810943	353.665
516.0000	11.3887	-0.00115393	0.814011	353.837
515.5000	11.0652	-0.00120846	0.816586	354.006
515.0000	10.7425	-0.00125767	0.819169	354.166
514.5000	10.4015	-0.00130269	0.82164	354.327
514.0000	10.4519	-0.0013552	0.823999	354.467
513.5000	10.296	-0.0013779	0.826428	354.605
513.0000	10.1762	-0.00143681	0.828595	354.754
512.5000	10.1808	-0.00150008	0.831311	354.935
512.0000	9.54643	-0.00156441	0.833905	355.096
511.5000	9.48355	-0.00162654	0.836139	355.258
511.0000	8.97298	-0.00167093	0.838413	355.407
510.5000	8.64699	-0.00171681	0.840829	355.544
510.0000	8.60878	-0.00172553	0.843176	355.677
509.5000	8.41003	-0.00176474	0.845356	355.808
509.0000	8.48065	-0.00178941	0.847317	355.93
508.5000	8.27992	-0.00180778	0.849202	356.032
508.0000	8.25102	-0.00182368	0.851154	356.107
507.5000	7.66993	-0.00190595	0.853047	356.167
507.0000	7.08825	-0.00194482	0.855077	356.235
506.5000	6.73795	-0.00199119	0.856963	356.292
506.0000	6.56877	-0.00201864	0.858416	356.347
505.5000	6.08895	-0.0020516	0.859807	356.393
505.0000	5.78691	-0.00211652	0.861267	356.439
504.5000	5.71789	-0.00216275	0.862668	356.463
504.0000	5.71326	-0.00218512	0.863582	356.442
503.5000	5.70359	-0.00221866	0.864227	356.397
503.0000	5.22118	-0.00225255	0.864739	356.32
502.5000	5.28189	-0.00227675	0.864926	356.228
502.0000	5.03527	-0.0023291	0.864913	356.122
501.5000	4.64477	-0.00239764	0.86483	355.988
501.0000	4.09125	-0.00244156	0.864655	355.832
500.5000	4.13969	-0.00250032	0.864309	355.631
500.0000	3.80236	-0.00254739	0.863687	355.383
499.5000	3.5379	-0.00259905	0.8623	355.078
499.0000	3.48976	-0.00265184	0.860544	354.66
498.5000	3.1112	-0.00270168	0.858339	354.112
498.0000	3.02096	-0.00274782	0.855843	353.443
497.5000	2.40727	-0.0028038	0.85351	352.624
497.0000	2.03028	-0.00283233	0.851493	351.744
496.5000	1.8688	-0.00285807	0.849749	350.821
496.0000	1.30338	-0.00292177	0.849045	350.067
495.5000	0.668933	-0.00297481	0.848707	349.485
495.0000	0.363952	-0.00300371	0.847596	349.043
494.5000	-0.0914881	-0.00305047	0.845841	348.639
494.0000	-0.365458	-0.00308566	0.843764	348.249
493.5000	-0.525093	-0.00310469	0.841506	347.838
493.0000	-0.884165	-0.00317943	0.839224	347.438
492.5000	-1.10032	-0.00324611	0.8369	347.035
492.0000	-1.47041	-0.0033002	0.83437	346.626
491.5000	-1.69979	-0.00334919	0.831828	346.262
491.0000	-2.12461	-0.00338092	0.8295	345.92
490.5000	-2.25258	-0.00342017	0.82724	345.624
490.0000	-2.70004	-0.00345793	0.824802	345.362
489.5000	-2.88856	-0.00349409	0.822334	345.158
489.0000	-3.27459	-0.00355004	0.819512	344.946
488.5000	-3.37502	-0.00357042	0.816399	344.719
488.0000	-3.47922	-0.00363216	0.812152	344.301
487.5000	-3.86128	-0.00367536	0.80728	343.655
487.0000	-3.95317	-0.0037121	0.803257	342.902
486.5000	-4.36274	-0.00378109	0.79909	342.012
486.0000	-4.60214	-0.0038379	0.79517	341.099
485.5000	-4.67829	-0.00385938	0.792476	340.202
485.0000	-4.68219	-0.00388043	0.790634	339.395
484.5000	-5.04013	-0.00387972	0.788366	338.726
484.0000	-5.1692	-0.00389071	0.78549	338.129
483.5000	-5.77348	-0.00392085	0.782732	337.631
483.0000	-5.77745	-0.00394046	0.779241	337.14
482.5000	-5.80448	-0.00396891	0.775601	336.722
482.0000	-5.92788	-0.00398214	0.771817	336.346
481.5000	-6.11172	-0.00401857	0.768191	335.985
481.0000	-6.22534	-0.00406112	0.76482	335.658
480.5000	-6.5015	-0.00408257	0.761166	335.347
480.0000	-6.85178	-0.00409869	0.757089	335.034
479.5000	-7.08379	-0.00410695	0.752898	334.72
479.0000	-7.10444	-0.0041188	0.747336	334.295
478.5000	-6.99812	-0.00411726	0.74119	333.63
478.0000	-6.95389	-0.00411199	0.736008	332.717
477.5000	-7.04854	-0.0041157	0.733594	331.924
477.0000	-7.32655	-0.00413094	0.731367	331.33
476.5000	-7.50998	-0.00414396	0.726128	330.696
476.0000	-7.53961	-0.00417319	0.719577	329.871
475.5000	-7.33126	-0.00418881	0.712812	328.825
475.0000	-7.15046	-0.00421001	0.70601	327.57
474.5000	-7.23989	-0.00421863	0.700097	326.23
474.0000	-7.46888	-0.00421689	0.694792	324.78
473.5000	-7.44628	-0.00421556	0.688898	323.102
473.0000	-7.49504	-0.00419015	0.682868	321.259
472.5000	-7.33611	-0.00415492	0.677937	319.309
472.0000	-6.96977	-0.00413137	0.675232	317.661
471.5000	-6.82044	-0.00411487	0.673245	316.347
471.0000	-6.75772	-0.0041059	0.671492	315.559
470.5000	-6.77493	-0.00410015	0.669543	315.045
470.0000	-6.85442	-0.0040979	0.667032	314.845
469.5000	-6.72605	-0.0040744	0.662317	314.721
469.0000	-6.51434	-0.00406169	0.653766	314.26
468.5000	-6.28004	-0.00404768	0.645133	313.398
468.0000	-6.27833	-0.00402354	0.638786	312.438
467.5000	-6.45009	-0.00400001	0.634117	311.612
467.0000	-6.64842	-0.00397453	0.630621	310.995
466.5000	-6.60185	-0.00395531	0.627633	310.59
466.0000	-6.53915	-0.0039156	0.623846	310.366
465.5000	-6.37263	-0.00390602	0.619552	310.338
465.0000	-6.39198	-0.00388013	0.614917	310.577
464.5000	-6.17202	-0.00386981	0.608889	310.976
464.0000	-6.31808	-0.00385849	0.600801	311.251
463.5000	-6.2489	-0.00382861	0.591262	311.185
463.0000	-6.2013	-0.0038009	0.582039	310.792
462.5000	-6.05568	-0.00377883	0.574279	310.228
462.0000	-6.0954	-0.0037426	0.567935	309.638
461.5000	-6.09062	-0.00370828	0.562208	309.129
461.0000	-5.98355	-0.00367542	0.556623	308.744
460.5000	-6.12252	-0.00365554	0.55069	308.476
460.0000	-5.84246	-0.00361186	0.544971	308.313
459.5000	-5.737	-0.00357158	0.538797	308.196
459.0000	-5.45415	-0.00352032	0.531576	308.025
458.5000	-5.40403	-0.00348826	0.523975	307.775
458.0000	-5.22295	-0.00345181	0.515917	307.376
457.5000	-5.18421	-0.00342545	0.507609	306.752
457.0000	-4.95913	-0.00336629	0.499738	305.942
456.5000	-4.82427	-0.00331869	0.493476	305.164
456.0000	-4.61574	-0.003259	0.486957	304.475
455.5000	-4.5486	-0.00321639	0.478578	303.635
455.0000	-4.31592	-0.00318859	0.470669	302.66
454.5000	-4.2317	-0.0031425	0.464571	301.726
454.0000	-4.11948	-0.00308447	0.459383	301.047
453.5000	-3.81194	-0.00303049	0.452998	300.556
453.0000	-3.60814	-0.00299285	0.446134	300.088
452.5000	-3.50761	-0.0029431	0.439307	299.581
452.0000	-3.48778	-0.0028934	0.432712	299.035
451.5000	-3.32289	-0.00284509	0.425764	298.46
451.0000	-3.09143	-0.00279671	0.419152	297.908
450.5000	-2.75412	-0.00275063	0.412404	297.328
450.0000	-2.61379	-0.0027014	0.406313	296.762
449.5000	-2.49648	-0.00265733	0.40106	296.307
449.0000	-2.46617	-0.00261273	0.396369	296.026
448.5000	-2.49095	-0.0025716	0.390339	295.767
448.0000	-2.4212	-0.00251484	0.383583	295.38
447.5000	-2.33036	-0.00247022	0.378238	294.995
447.0000	-2.31951	-0.00242874	0.3745	294.822
446.5000	-2.34532	-0.00238419	0.370369	294.831
446.0000	-2.191	-0.00234692	0.36351	294.716
445.5000	-2.01009	-0.00231824	0.356366	294.307
445.0000	-1.95504	-0.00226307	0.350324	293.73
444.5000	-2.04274	-0.00222199	0.344555	293.103
444.0000	-1.76411	-0.00217661	0.339	292.469
443.5000	-1.68636	-0.00214135	0.333428	291.767
443.0000	-1.65091	-0.00209678	0.328749	291.135
442.5000	-1.70791	-0.00205276	0.324428	290.544
442.0000	-1.84247	-0.00202186	0.320353	290.049
441.5000	-1.72982	-0.00198364	0.315813	289.542
441.0000	-1.71014	-0.00194052	0.311503	289.073
440.5000	-1.64465	-0.00190008	0.307316	288.619
440.0000	-1.55823	-0.00186293	0.302876	288.146
439.5000	-1.40368	-0.00182291	0.298196	287.659
439.0000	-1.30402	-0.00177529	0.293102	287.14
438.5000	-1.11116	-0.00171768	0.287845	286.627
438.0000	-1.05132	-0.00166145	0.282555	286.132
437.5000	-1.08913	-0.00162439	0.277538	285.652
437.0000	-1.08944	-0.00157709	0.272131	285.155
436.5000	-0.842884	-0.00154079	0.268088	284.75
436.0000	-0.824769	-0.00150009	0.264283	284.383
435.5000	-0.773359	-0.00146475	0.260121	284.048
435.0000	-0.777609	-0.00142299	0.255664	283.724
434.5000	-0.665211	-0.00137789	0.251131	283.394
434.0000	-0.628864	-0.00135069	0.246753	283.046
433.5000	-0.659236	-0.00131336	0.24258	282.688
433.0000	-0.484541	-0.0012791	0.238623	282.298
432.5000	-0.372291	-0.00124352	0.23471	281.907
432.0000	-0.300755	-0.00121022	0.230485	281.494
431.5000	-0.276143	-0.00118905	0.226387	281.082
431.0000	-0.290398	-0.00116918	0.222537	280.678
430.5000	-0.212819	-0.00112889	0.218936	280.287
430.0000	-0.26249	-0.00112323	0.215781	279.921
429.5000	-0.196132	-0.00108575	0.212157	279.519
429.0000	0.000339861	-0.0010554	0.208694	279.126
428.5000	0.191657	-0.00102457	0.205104	278.73
428.0000	0.105374	-0.000995445	0.201129	278.325
427.5000	0.0684489	-0.000976649	0.197887	277.965
427.0000	0.023708	-0.000945501	0.194756	277.604
426.5000	-0.000164706	-0.000926246	0.191781	277.25
426.0000	-0.12846	-0.000898917	0.188733	276.869
425.5000	0.0958314	-0.00087326	0.18579	276.46
425.0000	0.0987129	-0.000847444	0.182602	276.02
424.5000	0.322663	-0.000817632	0.17952	275.556
424.0000	0.413643	-0.000800094	0.176828	275.111
423.5000	0.36186	-0.000782764	0.174656	274.716
423.0000	0.391705	-0.000757707	0.172394	274.377
422.5000	0.407941	-0.000726429	0.170048	274.088
422.0000	0.367699	-0.000706002	0.167321	273.795
421.5000	0.456989	-0.000684536	0.164761	273.525
421.0000	0.613113	-0.000665333	0.162528	273.279
420.5000	0.586277	-0.000638011	0.160182	273.028
420.0000	0.546847	-0.00061093	0.157967	272.773
419.5000	0.570113	-0.000586502	0.155822	272.507
419.0000	0.58733	-0.000580131	0.15379	272.261
418.5000	0.62526	-0.000566656	0.151683	272.044
418.0000	0.540925	-0.000545665	0.149846	271.828
417.5000	0.56032	-0.000510929	0.147723	271.607
417.0000	0.404024	-0.000495432	0.146048	271.411
416.5000	0.430455	-0.000482007	0.144634	271.273
416.0000	0.429045	-0.000474197	0.143127	271.19
415.5000	0.463513	-0.000453834	0.141392	271.102
415.0000	0.48191	-0.00044509	0.139407	270.955
414.5000	0.659485	-0.000430291	0.137608	270.752
414.0000	0.808928	-0.000414829	0.136329	270.554
413.5000	0.699221	-0.000390374	0.13533	270.361
413.0000	0.563907	-0.000379112	0.134264	270.177
412.5000	0.592321	-0.000370726	0.133258	270.021
412.0000	0.670123	-0.000365666	0.132318	269.88
411.5000	0.716979	-0.000355636	0.131095	269.738
411.0000	0.704717	-0.000343629	0.130127	269.622
410.5000	0.729374	-0.000326928	0.129302	269.511
410.0000	0.697526	-0.000316454	0.128581	269.409
409.5000	0.74365	-0.000315665	0.128054	269.336
409.0000	0.768898	-0.000323254	0.127421	269.272
408.5000	0.899976	-0.000304803	0.126547	269.214
408.0000	0.926121	-0.000299314	0.12553	269.158
407.5000	1.00676	-0.000279034	0.124533	269.097
407.0000	1.00965	-0.000266373	0.123643	269.02
406.5000	1.00764	-0.000254416	0.123028	268.951
406.0000	0.947531	-0.000240319	0.122367	268.875
405.5000	0.858632	-0.000243842	0.121503	268.786
405.0000	0.920674	-0.000232727	0.120723	268.683
404.5000	0.877016	-0.00021665	0.120113	268.575
404.0000	0.70696	-0.000211216	0.11985	268.442
403.5000	0.674711	-0.000195932	0.11948	268.276
403.0000	0.71917	-0.000191568	0.11938	268.091
402.5000	0.797655	-0.000183209	0.11882	267.881
402.0000	0.745459	-0.000177019	0.118768	267.688
401.5000	0.899136	-0.000161122	0.118854	267.477
401.0000	0.935241	-0.000146836	0.118831	267.295
400.5000	0.841816	-0.000137799	0.118856	267.129
400.0000	0.635739	-0.000138585	0.118875	266.995
399.5000	0.603258	-0.000141877	0.119353	266.865
399.0000	0.541875	-0.000144174	0.119865	266.772
398.5000	0.473504	-0.000140677	0.120165	266.694
398.0000	0.408448	-0.000140677	0.120282	266.625
397.5000	0.370695	-0.000138842	0.12049	266.589
397.0000	0.409889	-0.000148227	0.121063	266.58
396.5000	0.494481	-0.000152842	0.121462	266.605
396.0000	0.515566	-0.000153797	0.121711	266.634
395.5000	0.435252	-0.00016375	0.121606	266.69
395.0000	0.406285	-0.000164545	0.121714	266.779
394.5000	0.460295	-0.00016486	0.122114	266.908
394.0000	0.37615	-0.000156008	0.122623	267.068
393.5000	0.38627	-0.00015387	0.122707	267.235
393.0000	0.248071	-0.000171951	0.122761	267.424
392.5000	0.426679	-0.000167453	0.12307	267.611
392.0000	0.609899	-0.000179031	0.123501	267.774
391.5000	0.626252	-0.000176786	0.124184	267.925
391.0000	0.664189	-0.000179533	0.124531	268.048
390.5000	0.679073	-0.00017792	0.124742	268.171
390.0000	0.642609	-0.000169034	0.124967	268.284
389.5000	0.690738	-0.000151941	0.125591	268.394
389.0000	0.735145	-0.000151878	0.12636	268.495
388.5000	0.711654	-0.000147037	0.126662	268.572
388.0000	0.846878	-0.000148191	0.126993	268.657
387.5000	0.761983	-0.000148065	0.127739	268.748
387.0000	0.772683	-0.000139895	0.128839	268.825
386.5000	0.717122	-0.000139667	0.129859	268.906
386.0000	0.653623	-0.000144997	0.13074	268.959
385.5000	0.563905	-0.00016208	0.131685	269.012
385.0000	0.539059	-0.000157085	0.132581	269.055
384.5000	0.563083	-0.000153239	0.133505	269.1
384.0000	0.495882	-0.000127114	0.134528	269.141
383.5000	0.562513	-0.000113015	0.135386	269.191
383.0000	0.618191	-0.000117421	0.135986	269.23
382.5000	0.678544	-0.000115895	0.136792	269.281
382.0000	0.72311	-0.000113309	0.138072	269.334
381.5000	0.816959	-0.000125788	0.139494	269.39
381.0000	0.776882	-0.000116127	0.14066	269.451
380.5000	0.830771	-0.000128848	0.141632	269.511
380.0000	0.782872	-0.0001171	0.142951	269.581
379.5000	0.674988	-0.000100131	0.144166	269.639
379.0000	0.761723	-0.000100161	0.145015	269.696
378.5000	0.79103	-0.000101443	0.145604	269.758
378.0000	0.938097	-0.000103988	0.146362	269.83
377.5000	1.03569	-0.000110974	0.147136	269.889
377.0000	1.25531	-0.000104726	0.147816	269.94
376.5000	1.23125	-0.000111974	0.148684	269.985
376.0000	1.18139	-0.000114968	0.149539	270.022
375.5000	1.37452	-0.000120135	0.149996	270.042
375.0000	1.25099	-0.00012161	0.150557	270.061
374.5000	1.12164	-0.000119817	0.151153	270.077
374.0000	1.15811	-0.000122224	0.151677	270.082
373.5000	1.1919	-0.000134516	0.152049	270.083
373.0000	1.19357	-0.000160765	0.152307	270.093
372.5000	1.21086	-0.000167215	0.152539	270.094
372.0000	1.27779	-0.000162617	0.152931	270.103
371.5000	1.3399	-0.000172993	0.153218	270.111
371.0000	1.45412	-0.000199563	0.153751	270.125
370.5000	1.49323	-0.000195774	0.154425	270.147
370.0000	1.44978	-0.00021363	0.154863	270.162
369.5000	1.37428	-0.000211834	0.155318	270.185
369.0000	1.44828	-0.000205925	0.155862	270.217
368.5000	1.38367	-0.000219733	0.156505	270.253
368.0000	1.31505	-0.00022771	0.157178	270.315
367.5000	1.33573	-0.000233303	0.15789	270.376
367.0000	1.38282	-0.000257581	0.158878	270.446
366.5000	1.45414	-0.000272764	0.159751	270.533
366.0000	1.38578	-0.000286841	0.160623	270.632
365.5000	1.38721	-0.000283697	0.161281	270.714
365.0000	1.54806	-0.000277603	0.1618	270.795
364.5000	1.57704	-0.000278275	0.162551	270.877
364.0000	1.63669	-0.000286267	0.163149	270.962
363.5000	1.61892	-0.000296013	0.16419	271.058
363.0000	1.5841	-0.000306262	0.165153	271.152
362.5000	1.67226	-0.000309052	0.165868	271.237
362.0000	1.65354	-0.00031563	0.166587	271.325
361.5000	1.68907	-0.000307337	0.167478	271.412
361.0000	1.55962	-0.000316257	0.168299	271.495
360.5000	1.46219	-0.000313582	0.169027	271.59
360.0000	1.56809	-0.000315486	0.1696	271.662
359.5000	1.70493	-0.000323681	0.170123	271.737
359.0000	1.55385	-0.000342754	0.170447	271.815
358.5000	1.59941	-0.000347936	0.170615	271.89
358.0000	1.63932	-0.000346817	0.170681	271.952
357.5000	1.62369	-0.00035721	0.170962	272.035
357.0000	1.58587	-0.000372525	0.171535	272.12
356.5000	1.60881	-0.000382362	0.17232	272.197
356.0000	1.62049	-0.000407847	0.172678	272.267
355.5000	1.65964	-0.000416681	0.172984	272.335
355.0000	1.73026	-0.00042493	0.173092	272.396
354.5000	1.72452	-0.000437552	0.173332	272.47
354.0000	1.52724	-0.000452113	0.17374	272.549
353.5000	1.61714	-0.000462968	0.17418	272.631
353.0000	1.62033	-0.00048564	0.17451	272.71
352.5000	1.72155	-0.000495695	0.175021	272.803
352.0000	1.7904	-0.000522858	0.175435	272.887
351.5000	1.77707	-0.000528745	0.175805	272.963
351.0000	1.84956	-0.000536681	0.176484	273.037
350.5000	2.01217	-0.000543079	0.177367	273.119
350.0000	1.992	-0.000542179	0.178292	273.201
349.5000	1.95319	-0.000560478	0.179464	273.297
349.0000	2.0073	-0.000571231	0.180619	273.385
348.5000	1.81849	-0.000575867	0.181871	273.473
348.0000	1.851	-0.0005831	0.182778	273.554
347.5000	1.72645	-0.000584572	0.183921	273.631
347.0000	1.7412	-0.000606869	0.185309	273.726
346.5000	1.6297	-0.000624967	0.186343	273.807
346.0000	1.65617	-0.000630465	0.187284	273.886
345.5000	1.73301	-0.000647892	0.188383	273.965
345.0000	1.89977	-0.000646589	0.18959	274.05
344.5000	2.09856	-0.000658866	0.190739	274.129
344.0000	2.09395	-0.000679579	0.192076	274.208
343.5000	2.15814	-0.000703733	0.193109	274.284
343.0000	2.23989	-0.000727719	0.194096	274.365
342.5000	2.16186	-0.000748505	0.194969	274.449
342.0000	2.29101	-0.000764463	0.195876	274.539
341.5000	2.33369	-0.000784284	0.196692	274.612
341.0000	2.44599	-0.000793049	0.197634	274.679
340.5000	2.62267	-0.000820393	0.198347	274.749
340.0000	2.69083	-0.000845611	0.199211	274.836
339.5000	2.70752	-0.000873234	0.199928	274.932
339.0000	2.76304	-0.000883965	0.200862	275.023
338.5000	2.81888	-0.000884373	0.201885	275.116
338.0000	2.82597	-0.000900847	0.202811	275.205
337.5000	2.8314	-0.000915157	0.203707	275.3
337.0000	2.85384	-0.000942786	0.204456	275.39
336.5000	2.81624	-0.000966206	0.20538	275.477
336.0000	2.89777	-0.000995081	0.206344	275.58
335.5000	3.14566	-0.00100555	0.207348	275.684
335.0000	3.16229	-0.00102067	0.208431	275.796
334.5000	3.3031	-0.00104173	0.209407	275.908
334.0000	3.36592	-0.00107804	0.210502	276.018
333.5000	3.34487	-0.00109922	0.212027	276.136
333.0000	3.38694	-0.00112362	0.213301	276.263
332.5000	3.27211	-0.00115918	0.21417	276.38
332.0000	3.25162	-0.00116512	0.21519	276.503
331.5000	3.3455	-0.00118918	0.216331	276.618
331.0000	3.35748	-0.00121454	0.217729	276.752
330.5000	3.47791	-0.0012402	0.218771	276.875
330.0000	3.41597	-0.00128072	0.219883	276.995
329.5000	3.58839	-0.00129934	0.221161	277.131
329.0000	3.77388	-0.00135414	0.222305	277.265
328.5000	3.84512	-0.00137248	0.223532	277.395
328.0000	3.84357	-0.00140298	0.22448	277.51
327.5000	3.79148	-0.00143412	0.225517	277.615
327.0000	3.67923	-0.00145677	0.22669	277.708
326.5000	3.83312	-0.0014883	0.228205	277.83
326.0000	3.81567	-0.00151341	0.229889	277.964
325.5000	3.80012	-0.00153281	0.231441	278.107
325.0000	3.80902	-0.00157465	0.23279	278.261
324.5000	3.94719	-0.00162268	0.234163	278.405
324.0000	4.08525	-0.00165631	0.23597	278.57
323.5000	4.00789	-0.00170283	0.237802	278.728
323.0000	4.01408	-0.00173149	0.239416	278.891
322.5000	4.00913	-0.00176886	0.241019	279.057
322.0000	3.95273	-0.00180315	0.242534	279.226
321.5000	4.07792	-0.0018361	0.244403	279.407
321.0000	3.89799	-0.0018943	0.246381	279.594
320.5000	4.02561	-0.00192762	0.248398	279.779
320.0000	3.8991	-0.00195795	0.250064	279.946
319.5000	3.90936	-0.00200217	0.251941	280.132
319.0000	3.71812	-0.00203567	0.253858	280.346
318.5000	3.80641	-0.00207657	0.255851	280.576
318.0000	3.82356	-0.00211469	0.25744	280.765
317.5000	3.75902	-0.0021603	0.259141	280.944
317.0000	3.79773	-0.00219704	0.26094	281.107
316.5000	3.78315	-0.00221733	0.262858	281.266
316.0000	3.74771	-0.002247	0.264996	281.448
315.5000	3.86321	-0.00227345	0.2669	281.642
315.0000	4.05427	-0.00229643	0.268945	281.859
314.5000	4.01434	-0.00233218	0.270976	282.077
314.0000	4.11041	-0.00235719	0.273087	282.291
313.5000	4.13751	-0.00239068	0.275404	282.521
313.0000	4.17059	-0.00241026	0.277702	282.76
312.5000	4.14556	-0.00243093	0.279711	282.984
312.0000	4.07292	-0.00244581	0.282149	283.229
311.5000	4.29927	-0.00246625	0.284686	283.494
311.0000	4.4063	-0.00248069	0.287359	283.751
310.5000	4.50669	-0.00250891	0.289889	284.035
310.0000	4.5494	-0.00252037	0.292666	284.32
309.5000	4.60861	-0.00254085	0.295617	284.618
309.0000	4.69778	-0.00256128	0.298958	284.96
308.5000	4.77519	-0.002588	0.302209	285.323
308.0000	4.81927	-0.00261687	0.305388	285.674
307.5000	4.8372	-0.00264532	0.309044	286.064
307.0000	4.86749	-0.00266814	0.31257	286.422
306.5000	4.95931	-0.00270351	0.316407	286.81
306.0000	5.1697	-0.00273146	0.32047	287.206
305.5000	5.11694	-0.00275346	0.324674	287.644
305.0000	5.44687	-0.00277545	0.32891	288.074
304.5000	5.2998	-0.00280794	0.333987	288.569
304.0000	5.57471	-0.00283355	0.339523	289.099
303.5000	5.70115	-0.00286426	0.344878	289.614
303.0000	5.56165	-0.00290087	0.350553	290.183
302.5000	5.70864	-0.00293201	0.356565	290.79
302.0000	5.65961	-0.00297341	0.362913	291.411
301.5000	5.47206	-0.00301114	0.369562	292.057
301.0000	5.47163	-0.00303903	0.376316	292.736
300.5000	5.45569	-0.00307249	0.382342	293.345
300.0000	5.4285	-0.00310264	0.389798	294.067
299.5000	5.43703	-0.00312979	0.396923	294.77
299.0000	5.58272	-0.0031287	0.403982	295.481
298.5000	5.46163	-0.00316429	0.411479	296.247
298.0000	5.61865	-0.00318215	0.418767	296.983
297.5000	5.78398	-0.0031873	0.426207	297.73
297.0000	5.95813	-0.00317901	0.433434	298.412
296.5000	5.87334	-0.00318553	0.440337	299.083
296.0000	6.0909	-0.00319088	0.447047	299.742
295.5000	5.9763	-0.00317655	0.453872	300.385
295.0000	6.00822	-0.00315652	0.460412	300.985
294.5000	5.92557	-0.00313782	0.46699	301.601
294.0000	5.97547	-0.00311095	0.473533	302.257
293.5000	6.06926	-0.00306725	0.479115	302.834
293.0000	6.05298	-0.00302458	0.484986	303.433
292.5000	6.07079	-0.00297539	0.49089	304.057
292.0000	6.054	-0.0029066	0.496309	304.646
291.5000	6.02523	-0.00285391	0.501778	305.228
291.0000	5.80587	-0.00279952	0.507153	305.798
290.5000	5.68752	-0.00274766	0.512836	306.394
290.0000	5.54575	-0.0026615	0.518374	306.956
289.5000	5.2687	-0.00259388	0.523384	307.496
289.0000	5.10437	-0.00253581	0.528465	308.05
288.5000	4.86907	-0.00248378	0.533941	308.656
288.0000	4.57566	-0.00240343	0.539209	309.246
287.5000	4.46979	-0.00233471	0.544692	309.869
287.0000	4.29869	-0.00226949	0.550127	310.53
286.5000	4.22191	-0.00218705	0.555358	311.192
286.0000	3.96441	-0.00211478	0.560524	311.812
285.5000	3.67776	-0.0020504	0.566297	312.441
285.0000	3.44493	-0.00197192	0.572312	313.1
284.5000	3.35707	-0.00190287	0.577681	313.698
284.0000	3.28514	-0.00184127	0.583415	314.332
283.5000	3.1731	-0.00177598	0.589467	314.986
283.0000	3.0768	-0.00170306	0.595403	315.634
282.5000	2.98043	-0.00160198	0.601922	316.34
282.0000	2.69897	-0.00152305	0.608252	317.06
281.5000	2.70036	-0.0014498	0.614365	317.763
281.0000	2.51485	-0.00137106	0.620879	318.488
280.5000	2.18216	-0.00129226	0.627611	319.261
280.0000	2.08379	-0.00120205	0.634703	320.069
279.5000	2.00612	-0.00113933	0.641974	320.907
279.0000	1.69681	-0.0010606	0.649081	321.738
278.5000	1.57021	-0.000982403	0.656905	322.64
278.0000	1.31106	-0.000909444	0.665921	323.627
277.5000	1.30975	-0.00081702	0.674219	324.54
277.0000	1.2515	-0.000739926	0.68305	325.541
276.5000	1.08233	-0.000650347	0.692107	326.584
276.0000	0.839611	-0.000583121	0.700859	327.582
275.5000	0.565506	-0.000502405	0.711076	328.718
275.0000	0.234332	-0.000422508	0.721758	329.913
274.5000	0.165681	-0.000367652	0.732496	331.14
274.0000	0.125813	-0.000291193	0.744029	332.49
273.5000	-0.152395	-0.000237314	0.755232	333.766
273.0000	-0.451478	-0.000164672	0.767556	335.168
272.5000	-0.679542	-7.19083E-005	0.780371	336.637
272.0000	-0.557295	1.33042E-005	0.793579	338.173
271.5000	-0.874112	6.51601E-005	0.808111	339.865
271.0000	-1.23625	0.000120636	0.822813	341.547
270.5000	-1.05257	0.000218224	0.838463	343.322
270.0000	-0.877642	0.000298384	0.854453	345.178
269.5000	-0.714165	0.000397208	0.871028	347.145
269.0000	-0.971561	0.000452364	0.8875	349.092
268.5000	-1.09122	0.000526364	0.90575	351.242
268.0000	-0.930494	0.000588695	0.924925	353.497
267.5000	-1.04973	0.000662693	0.944898	355.863
267.0000	-1.24566	0.000748438	0.96645	358.464
266.5000	-1.28149	0.000794793	0.988644	361.179
266.0000	-1.17576	0.000863169	1.00988	363.734
265.5000	-1.29784	0.000909191	1.0329	366.489
265.0000	-1.22711	0.000962485	1.05739	369.485
264.5000	-1.50333	0.000966476	1.08096	372.413
264.0000	-1.45426	0.000994804	1.10483	375.398
263.5000	-1.57346	0.00101694	1.13044	378.587
263.0000	-1.49923	0.0010699	1.15383	381.524
262.5000	-1.39139	0.0011139	1.1796	384.826
262.0000	-1.41121	0.00111102	1.20396	388.016
261.5000	-0.908858	0.00111893	1.22877	391.25
261.0000	-0.710994	0.0011059	1.25295	394.369
260.5000	-0.394019	0.00106357	1.27877	397.739
260.0000	0.0650882	0.00109953	1.3047	401.167
259.5000	0.352181	0.00105847	1.33101	404.684
259.0000	1.1415	0.00102765	1.35766	408.298
258.5000	1.75601	0.00098678	1.38526	412.018
258.0000	1.76793	0.000919195	1.41365	415.867
257.5000	1.85889	0.000853939	1.44144	419.653
257.0000	2.55547	0.000868204	1.47172	423.805
256.5000	2.15058	0.00081402	1.50152	427.906
256.0000	3.53666	0.000822525	1.53441	432.436
255.5000	3.67447	0.000793366	1.56881	437.185
255.0000	4.67949	0.000656249	1.60456	442.169
254.5000	5.01582	0.000549958	1.63991	447.134
254.0000	5.95074	0.000518482	1.67675	452.335
253.5000	6.07242	0.000385399	1.71951	458.355
253.0000	7.04597	0.000321371	1.75963	464.084
252.5000	7.14937	0.000230303	1.82081	472.973
252.0000	8.39221	0.000101102	1.87368	480.729
251.5000	8.88379	-7.3414E-007	1.92146	487.791
251.0000	10.1709	-9.4662E-005	1.97123	495.176
250.5000	8.72285	-8.3587E-005	2.02252	502.901
250.0000	9.0426	-0.000172423	2.0726	510.556
249.5000	11.1766	-0.000352069	2.12427	518.55
249.0000	12.5766	-0.000515778	2.18028	527.314
248.5000	14.023	-0.000582814	2.23534	536.003
248.0000	14.7548	-0.000814862	2.29491	545.539
247.5000	17.3911	-0.00101009	2.35312	555.013
247.0000	18.0218	-0.00107728	2.41633	565.461
246.5000	19.4997	-0.00122168	2.48182	576.418
246.0000	20.895	-0.00141835	2.54951	587.891
245.5000	20.1736	-0.00144573	2.62251	600.546
245.0000	21.526	-0.00146374	2.69842	613.931
244.5000	21.1638	-0.00161633	2.77683	627.998
244.0000	20.4288	-0.00172072	2.8573	642.744
243.5000	20.8563	-0.00182896	2.93572	657.424
243.0000	17.7873	-0.00207194	3.01549	672.697
242.5000	16.922	-0.0019834	3.10453	690.13
242.0000	17.6804	-0.00205613	3.18192	705.618
241.5000	16.8399	-0.00190652	3.26804	723.222
241.0000	16.8397	-0.00190083	3.34499	739.306
240.5000	16.2797	-0.00174061	3.42908	757.365
240.0000	15.7125	-0.00161811	3.5035	773.71
239.5000	15.4219	-0.00118854	3.58675	792.43
239.0000	13.0878	-0.000948017	3.65575	808.281
238.5000	12.7094	-0.000842222	3.72485	824.53
238.0000	12.6851	-0.000701539	3.79229	840.864
237.5000	11.019	-0.000735613	3.84863	854.891
237.0000	8.10331	-0.000449904	3.90288	868.746
236.5000	10.3936	-0.000435104	3.9518	881.594
236.0000	9.91299	-0.000443656	3.99364	892.877
235.5000	9.24714	-6.68195E-005	4.03573	904.678
235.0000	8.30979	-0.000167499	4.06057	911.912
234.5000	8.48025	1.0773E-005	4.08401	918.95
234.0000	9.72396	0.000120156	4.10534	925.609
233.5000	8.31604	-6.98504E-005	4.12534	932.145
233.0000	4.93686	0.000114335	4.14177	937.96
232.5000	3.46492	0.000169382	4.15314	942.565
232.0000	1.05601	0.000128029	4.1619	946.919
231.5000	1.40798	6.66555E-005	4.16564	949.723
231.0000	1.26593	5.63158E-005	4.16714	952.227
230.5000	1.29189	4.55697E-005	4.16565	954.108
230.0000	-3.48993	2.93889E-005	4.16197	955.456
229.5000	-5.14602	0.000106515	4.15654	956.501
229.0000	-3.94554	0.000292104	4.14963	957.244
228.5000	-5.24636	0.000381128	4.142	957.794
228.0000	-4.47532	-1.80109E-005	4.13406	958.179
227.5000	-4.34971	0.000174614	4.12466	958.47
227.0000	-4.50606	0.000106399	4.11466	958.645
226.5000	-6.11408	0.000314484	4.1041	958.838
226.0000	-7.01001	0.000408207	4.09391	958.931
225.5000	-5.42703	0.00025281	4.0829	959.026
225.0000	-4.19297	0.000501104	4.07123	959.108
224.5000	-5.41038	0.00052454	4.05914	959.164
224.0000	-7.56926	0.000885544	4.04691	959.172
223.5000	-6.16949	0.000718021	4.03484	959.148
223.0000	-3.76079	0.000822377	4.02291	959.118
222.5000	-9.47627	0.000294378	4.00795	959.035
222.0000	-8.95877	0.000273971	3.99441	959.015
221.5000	-7.62356	0.000732373	3.9803	959.033
221.0000	-6.25605	0.00049501	3.96817	959.036
220.5000	-7.92488	0.000403765	3.9561	959.081
220.0000	-8.29333	0.000547129	3.94349	959.174

##### Extended Information
[Comments]
Sample name	JS187+JS190_5E-5_H2O_60-40_100EQDT+72H
Comment
User
Division
Company	Labo systeme complexes hors equilibre

[Detailed Information]
Creation date	1/26/2024 10:52 AM

Data array type	Linear data array * 4
Horizontal axis	Wavelength [nm]
Vertical axis(1)	CD [mdeg]
Vertical axis(2)	LD [dOD]
Vertical axis(3)	Abs
Vertical axis(4)	HT [V]
Start	700 nm
End	220 nm
Data interval	0.5 nm
Data points	961     

[Measurement Information]
Instrument name	CD Jasco
Model name	J-1500
Serial No.	A005261638

Detector	PM-539
Detector S/N	A0052PM539
  Lock-in amp.	X mode
  HT volt	Auto

Detector	EXPML-535
Detector S/N	A0001
  Lock-in amp.	X mode
  HT volt	Auto

Measurement date	1/26/2024 10:52 AM

Overload detect	1
Photometric mode	CD, LD, Abs, HT
Measure range	700 - 220 nm
Data pitch	0.5 nm
CD scale	200 mdeg/1.0 dOD
FL scale	200 mdeg/1.0 dOD
D.I.T.	1 sec
Bandwidth	1.00 nm
Start mode	Immediately
Scanning speed	500 nm/min
Baseline correction	Baseline
Shutter control	Auto


