TITLE	JS187+JS190_5E-5_H2O_48-52_100EQDT+72H
DATA TYPE	
ORIGIN	JASCO
OWNER	
DATE	24/01/26
TIME	10:11:33
SPECTROMETER/DATA SYSTEM	
LOCALE	1033
RESOLUTION	
DELTAX	-0.5
XUNITS	NANOMETERS
YUNITS	CD [mdeg]
Y2UNITS	LD [dOD]
Y3UNITS	ABSORBANCE
Y4UNITS	HT [V]
FIRSTX	  700.0000
LASTX	  220.0000
NPOINTS	     961
FIRSTY	     1.62363
MAXY	     6.12119
MINY	   -15.18502
XYDATA
700.0000	1.62363	-0.000436348	-0.0135965	303.047
699.5000	1.46012	-0.000440498	-0.0142681	302.779
699.0000	1.40369	-0.0004459	-0.0151612	302.444
698.5000	1.60722	-0.000426135	-0.0156944	302.06
698.0000	1.59345	-0.00043455	-0.0165572	301.645
697.5000	1.53105	-0.000405209	-0.0177854	301.22
697.0000	1.49972	-0.000380715	-0.0192955	300.752
696.5000	1.36897	-0.000383749	-0.0201257	300.265
696.0000	1.23282	-0.000373944	-0.0202607	299.726
695.5000	1.38204	-0.000379008	-0.0202337	299.205
695.0000	1.29239	-0.000390704	-0.0198664	298.717
694.5000	1.15585	-0.000387781	-0.0195964	298.241
694.0000	1.18711	-0.000387629	-0.0181817	297.796
693.5000	1.19036	-0.000387574	-0.0164977	297.381
693.0000	1.18233	-0.000401763	-0.0140894	297.032
692.5000	1.09912	-0.000398413	-0.0116358	296.712
692.0000	1.02321	-0.000376388	-0.00915544	296.434
691.5000	1.06461	-0.00039264	-0.00650923	296.181
691.0000	1.32358	-0.000394609	-0.00394229	295.939
690.5000	1.22975	-0.000384466	-0.00201988	295.742
690.0000	1.13439	-0.000391138	-0.000584766	295.546
689.5000	0.931579	-0.000388966	0.000796668	295.369
689.0000	0.635347	-0.000398753	0.00291991	295.244
688.5000	0.776119	-0.000393662	0.0049999	295.194
688.0000	0.804485	-0.000376735	0.00806083	295.264
687.5000	0.623392	-0.000382818	0.0114892	295.415
687.0000	0.666505	-0.00036973	0.0145565	295.612
686.5000	0.487995	-0.000383222	0.017125	295.851
686.0000	0.600325	-0.000395708	0.01833	296.095
685.5000	0.743621	-0.000386555	0.0186581	296.36
685.0000	0.370015	-0.000402233	0.0184716	296.612
684.5000	0.185587	-0.000416072	0.0176209	296.844
684.0000	0.388638	-0.000413643	0.0162209	297.063
683.5000	0.351117	-0.000424879	0.0152792	297.286
683.0000	0.223394	-0.000410055	0.0144465	297.533
682.5000	-0.0622581	-0.000412998	0.0140753	297.778
682.0000	0.520521	-0.000419586	0.0135364	298.046
681.5000	0.624927	-0.0004279	0.013651	298.327
681.0000	0.78975	-0.000438257	0.0138952	298.634
680.5000	0.920605	-0.000444927	0.0139872	298.902
680.0000	1.02377	-0.000450115	0.0127035	299.109
679.5000	1.00376	-0.000445466	0.0106181	299.235
679.0000	0.835107	-0.00043006	0.0074992	299.308
678.5000	0.921786	-0.000425214	0.00534945	299.339
678.0000	1.19682	-0.000404127	0.00330106	299.34
677.5000	1.37216	-0.000393004	0.00196607	299.317
677.0000	1.37345	-0.000372561	0.00127362	299.282
676.5000	1.55737	-0.000365332	0.0012916	299.244
676.0000	1.40878	-0.000377541	0.0015515	299.226
675.5000	1.48309	-0.000376028	0.00200507	299.226
675.0000	1.57081	-0.00036436	0.00233951	299.2
674.5000	1.53525	-0.000364576	0.00311983	299.186
674.0000	1.47333	-0.000349008	0.00414026	299.196
673.5000	1.32766	-0.000355794	0.00515496	299.207
673.0000	1.19741	-0.000335176	0.00527323	299.227
672.5000	1.0967	-0.000342465	0.00537954	299.256
672.0000	0.99481	-0.000319827	0.00567557	299.281
671.5000	0.988261	-0.000330804	0.00649362	299.311
671.0000	0.961163	-0.000346368	0.00741286	299.355
670.5000	1.22425	-0.000337347	0.0084837	299.395
670.0000	0.984241	-0.000318273	0.00952965	299.456
669.5000	1.07876	-0.000323383	0.010093	299.524
669.0000	1.14427	-0.000337937	0.0106863	299.593
668.5000	1.2396	-0.000364681	0.011271	299.666
668.0000	1.46199	-0.000388086	0.0118122	299.766
667.5000	1.48896	-0.000374102	0.0119477	299.845
667.0000	1.25288	-0.000382804	0.0119779	299.941
666.5000	1.21786	-0.000384797	0.0120341	300.039
666.0000	1.253	-0.000365923	0.0113899	300.145
665.5000	1.1108	-0.000374094	0.011305	300.265
665.0000	1.32151	-0.000382709	0.0118832	300.372
664.5000	1.58236	-0.00036834	0.0127543	300.478
664.0000	1.38647	-0.000363881	0.0128612	300.576
663.5000	1.50114	-0.000379755	0.0119869	300.673
663.0000	1.65687	-0.000383786	0.011808	300.758
662.5000	1.61246	-0.000370503	0.0114374	300.828
662.0000	1.607	-0.000406332	0.0109775	300.885
661.5000	1.30704	-0.000407609	0.0109445	300.921
661.0000	1.00843	-0.000426279	0.0106087	300.953
660.5000	0.98982	-0.000397729	0.0100705	300.975
660.0000	1.01265	-0.000398271	0.00969954	300.978
659.5000	0.917939	-0.000395712	0.00900064	300.982
659.0000	1.02905	-0.000408665	0.00843135	300.962
658.5000	0.814631	-0.000429587	0.00795965	300.917
658.0000	0.579579	-0.000438391	0.00786063	300.857
657.5000	1.00344	-0.00043416	0.00707682	300.766
657.0000	0.877008	-0.000429369	0.00730497	300.668
656.5000	0.826774	-0.000433738	0.00626417	300.533
656.0000	1.01107	-0.000438845	0.00530626	300.382
655.5000	1.13072	-0.000438996	0.00582969	300.221
655.0000	1.09919	-0.000415178	0.00556386	300.037
654.5000	1.20954	-0.000425986	0.00486249	299.86
654.0000	1.05934	-0.000427448	0.0047803	299.665
653.5000	1.17515	-0.000414289	0.00561409	299.498
653.0000	1.3331	-0.000394887	0.00665815	299.331
652.5000	1.42746	-0.000374489	0.0077366	299.195
652.0000	1.52569	-0.000370418	0.00905036	299.089
651.5000	1.45524	-0.000353478	0.0106583	298.993
651.0000	1.34818	-0.000361035	0.0129534	298.947
650.5000	1.28377	-0.000348552	0.0143125	298.908
650.0000	1.61714	-0.000340443	0.016267	298.91
649.5000	1.55617	-0.000330182	0.0176925	298.937
649.0000	1.42115	-0.000327008	0.0192876	298.98
648.5000	1.48761	-0.000331839	0.0200828	299.057
648.0000	1.58109	-0.000318299	0.0212875	299.163
647.5000	1.39866	-0.000314397	0.0223383	299.28
647.0000	1.23593	-0.000321559	0.0229034	299.424
646.5000	1.03788	-0.000322574	0.0233901	299.581
646.0000	1.01602	-0.000333784	0.0247841	299.742
645.5000	1.07821	-0.000302133	0.0252821	299.891
645.0000	1.0141	-0.000317011	0.0246262	300.026
644.5000	0.938429	-0.000329135	0.0242795	300.143
644.0000	0.844171	-0.000334704	0.0240192	300.232
643.5000	0.610148	-0.000363457	0.0233356	300.292
643.0000	0.884337	-0.000363651	0.0226978	300.328
642.5000	1.09942	-0.000361449	0.0221489	300.344
642.0000	1.16415	-0.000336491	0.0217958	300.341
641.5000	1.16297	-0.000348283	0.021244	300.313
641.0000	1.16975	-0.000360203	0.0210866	300.275
640.5000	1.19162	-0.000356249	0.0213854	300.229
640.0000	1.16676	-0.000341751	0.0219571	300.176
639.5000	1.06383	-0.000361465	0.0227358	300.1
639.0000	1.32437	-0.000352777	0.0233421	300.024
638.5000	1.40804	-0.000378864	0.0243429	299.932
638.0000	1.73232	-0.000363942	0.0248371	299.845
637.5000	1.64637	-0.0003677	0.0249468	299.74
637.0000	1.93167	-0.00033809	0.0261038	299.65
636.5000	1.94848	-0.000351735	0.0270264	299.565
636.0000	2.08376	-0.000358652	0.0273084	299.488
635.5000	2.42437	-0.000338684	0.0277114	299.414
635.0000	2.24243	-0.000325022	0.0286152	299.35
634.5000	2.11664	-0.000338961	0.0293566	299.286
634.0000	1.93624	-0.000343483	0.0300023	299.224
633.5000	2.03031	-0.000347682	0.0304409	299.18
633.0000	1.90431	-0.000337927	0.0314655	299.146
632.5000	1.70075	-0.000341591	0.0317381	299.102
632.0000	2.03998	-0.000347534	0.0320027	299.057
631.5000	1.99693	-0.000343184	0.0324686	299.004
631.0000	2.50118	-0.000329692	0.0330283	298.964
630.5000	2.48007	-0.000322102	0.0336377	298.93
630.0000	2.20292	-0.000328451	0.034229	298.888
629.5000	2.27251	-0.000330359	0.0350501	298.853
629.0000	2.25199	-0.000320706	0.0355838	298.814
628.5000	1.96485	-0.000340322	0.0358783	298.772
628.0000	2.04012	-0.000338201	0.0364165	298.726
627.5000	2.01022	-0.000308217	0.0371852	298.67
627.0000	1.83467	-0.000329373	0.0374587	298.615
626.5000	1.92842	-0.000321324	0.0375072	298.569
626.0000	1.90904	-0.000327916	0.0377106	298.529
625.5000	2.12562	-0.000325393	0.0384591	298.482
625.0000	2.14812	-0.000339113	0.0394206	298.449
624.5000	2.39364	-0.000352592	0.0403959	298.42
624.0000	2.24456	-0.000345946	0.0414183	298.415
623.5000	2.23231	-0.000338133	0.0424562	298.417
623.0000	1.86295	-0.00034977	0.0435002	298.434
622.5000	1.56762	-0.000353055	0.0445594	298.451
622.0000	1.4869	-0.000356805	0.0454036	298.483
621.5000	1.59843	-0.000353654	0.0462666	298.524
621.0000	1.45222	-0.000376696	0.0471849	298.574
620.5000	1.55577	-0.000393438	0.0478475	298.637
620.0000	1.53297	-0.00038402	0.0484763	298.719
619.5000	1.5891	-0.00039391	0.0493703	298.816
619.0000	1.66282	-0.000427236	0.0508794	298.946
618.5000	1.87931	-0.000416528	0.0527199	299.082
618.0000	1.68754	-0.000428491	0.0545439	299.219
617.5000	1.86294	-0.000422021	0.0555157	299.377
617.0000	1.65825	-0.000412017	0.0561065	299.532
616.5000	1.65556	-0.000401418	0.0567242	299.684
616.0000	1.7748	-0.00039811	0.0577627	299.833
615.5000	1.78259	-0.000427065	0.0582551	299.969
615.0000	1.80909	-0.000436592	0.0587983	300.117
614.5000	2.18798	-0.000418745	0.0590055	300.251
614.0000	2.18289	-0.000429757	0.0592669	300.387
613.5000	2.30461	-0.000411038	0.0598581	300.532
613.0000	2.31615	-0.000381676	0.0604343	300.691
612.5000	1.93358	-0.000370016	0.0610641	300.846
612.0000	2.09613	-0.000361101	0.061785	300.999
611.5000	1.9872	-0.000364249	0.0627568	301.145
611.0000	1.93417	-0.00035294	0.0631596	301.287
610.5000	1.91691	-0.000357269	0.0635875	301.438
610.0000	1.95106	-0.000367428	0.0634979	301.547
609.5000	1.82365	-0.000367954	0.064045	301.655
609.0000	1.74923	-0.000368127	0.0646214	301.763
608.5000	1.86273	-0.000384206	0.0656333	301.877
608.0000	1.80379	-0.000390255	0.0661101	301.97
607.5000	1.52955	-0.000403474	0.0662314	302.069
607.0000	1.74016	-0.000394537	0.066777	302.173
606.5000	1.74313	-0.000392717	0.0674455	302.276
606.0000	1.80289	-0.000388751	0.0689509	302.392
605.5000	1.46913	-0.000408088	0.070072	302.5
605.0000	1.22718	-0.000415989	0.0713524	302.59
604.5000	1.61488	-0.000418835	0.0723542	302.675
604.0000	1.45642	-0.000424057	0.0736695	302.762
603.5000	1.28839	-0.000435127	0.0750301	302.838
603.0000	1.44859	-0.000427836	0.0760293	302.918
602.5000	1.26671	-0.000442797	0.0774802	302.995
602.0000	1.7386	-0.00043431	0.0790069	303.063
601.5000	1.58909	-0.000435531	0.0805341	303.143
601.0000	1.68401	-0.00043566	0.0820589	303.223
600.5000	1.5853	-0.000427103	0.0839611	303.286
600.0000	1.42876	-0.000435411	0.0856273	303.35
599.5000	1.60092	-0.000412406	0.0880732	303.403
599.0000	1.61744	-0.000411333	0.0901939	303.46
598.5000	1.5503	-0.000407866	0.0926881	303.495
598.0000	1.61169	-0.000390326	0.0947388	303.527
597.5000	1.72975	-0.000373393	0.0966998	303.568
597.0000	1.80047	-0.000387176	0.0988891	303.602
596.5000	1.93915	-0.000391073	0.101192	303.622
596.0000	1.8998	-0.000383664	0.103588	303.646
595.5000	1.92142	-0.000400825	0.105847	303.672
595.0000	1.84366	-0.000406423	0.108298	303.678
594.5000	1.94714	-0.000391208	0.110817	303.691
594.0000	1.91999	-0.000382467	0.113161	303.738
593.5000	1.96682	-0.000380199	0.115868	303.766
593.0000	1.79284	-0.000378998	0.119001	303.802
592.5000	1.92387	-0.000377422	0.121615	303.855
592.0000	2.0854	-0.000348271	0.124154	303.923
591.5000	1.89321	-0.000351216	0.12636	303.987
591.0000	1.77273	-0.000345196	0.129176	304.066
590.5000	1.80478	-0.000349249	0.131938	304.18
590.0000	1.80665	-0.000353259	0.134889	304.303
589.5000	1.78151	-0.000351235	0.137969	304.423
589.0000	1.71573	-0.000356311	0.141074	304.551
588.5000	1.59383	-0.000346022	0.144323	304.717
588.0000	1.5982	-0.000343609	0.147969	304.907
587.5000	1.52751	-0.000327777	0.151691	305.119
587.0000	1.76202	-0.000324151	0.155571	305.384
586.5000	1.66132	-0.000335994	0.159321	305.644
586.0000	1.40204	-0.000320049	0.163608	305.907
585.5000	1.33944	-0.000326755	0.167452	306.179
585.0000	1.3611	-0.000304311	0.171459	306.482
584.5000	1.5314	-0.000290747	0.175473	306.788
584.0000	1.23547	-0.000289179	0.180144	307.133
583.5000	1.21227	-0.000303196	0.185087	307.502
583.0000	1.15734	-0.000296708	0.190635	307.907
582.5000	1.25298	-0.000276992	0.196101	308.345
582.0000	1.02914	-0.000250024	0.201575	308.78
581.5000	0.933146	-0.000218595	0.207399	309.255
581.0000	0.730053	-0.00022621	0.213861	309.766
580.5000	0.76228	-0.000201275	0.220297	310.282
580.0000	0.647579	-0.000176541	0.226643	310.808
579.5000	0.512604	-0.000161903	0.233092	311.359
579.0000	0.618818	-0.000124445	0.239758	311.922
578.5000	0.452217	-0.000119207	0.246938	312.493
578.0000	0.209831	-9.4481E-005	0.254277	313.112
577.5000	0.223584	-7.3002E-005	0.261708	313.798
577.0000	0.127128	-4.1974E-005	0.269853	314.468
576.5000	-0.00672856	-1.20391E-005	0.278725	315.204
576.0000	-0.141319	1.00109E-005	0.287454	315.935
575.5000	0.0188071	4.80619E-005	0.296757	316.708
575.0000	-0.202873	8.3475E-005	0.305108	317.445
574.5000	-0.100761	0.00010157	0.31455	318.26
574.0000	-0.153382	0.000125536	0.324188	319.067
573.5000	-0.239759	0.000143624	0.334101	319.915
573.0000	-0.144563	0.000162076	0.344176	320.827
572.5000	-0.0936061	0.000188506	0.353694	321.695
572.0000	-0.0802657	0.000209374	0.364487	322.697
571.5000	-0.263966	0.000230831	0.375256	323.676
571.0000	0.0520298	0.000260574	0.387143	324.71
570.5000	0.0584339	0.000297272	0.399048	325.803
570.0000	-0.0071291	0.000308042	0.410534	326.869
569.5000	0.0609376	0.000329983	0.42316	327.99
569.0000	0.0969369	0.000366598	0.435952	329.125
568.5000	-0.156818	0.000373363	0.447648	330.219
568.0000	-0.237229	0.00038777	0.459526	331.362
567.5000	-0.389446	0.000389796	0.471471	332.508
567.0000	-0.435184	0.000407063	0.483458	333.622
566.5000	-0.564492	0.000410134	0.495225	334.698
566.0000	-0.724848	0.000421898	0.506828	335.759
565.5000	-0.590426	0.000424863	0.517949	336.809
565.0000	-0.937882	0.000423468	0.528985	337.819
564.5000	-1.24921	0.0004163	0.539974	338.818
564.0000	-1.15771	0.000400267	0.550385	339.731
563.5000	-1.06981	0.000404379	0.560189	340.619
563.0000	-1.30676	0.000410167	0.56981	341.518
562.5000	-1.63247	0.000389088	0.578807	342.333
562.0000	-1.91955	0.000354854	0.587445	343.107
561.5000	-2.12876	0.000339968	0.596771	343.903
561.0000	-2.14195	0.000325736	0.605111	344.639
560.5000	-1.83331	0.000303087	0.612903	345.33
560.0000	-1.62122	0.000269774	0.620449	345.968
559.5000	-1.7501	0.000242771	0.627678	346.528
559.0000	-1.61278	0.000220657	0.633682	346.985
558.5000	-1.56396	0.00019463	0.638744	347.382
558.0000	-1.20944	0.00016533	0.642909	347.695
557.5000	-1.17021	0.000139704	0.647121	347.979
557.0000	-0.7665	0.000118405	0.650923	348.205
556.5000	-0.718114	9.35556E-005	0.653818	348.386
556.0000	-0.937799	6.30002E-005	0.655608	348.504
555.5000	-0.940363	8.81583E-006	0.657044	348.549
555.0000	-1.06117	-2.19485E-005	0.658133	348.536
554.5000	-0.77467	-5.63112E-005	0.659106	348.47
554.0000	-0.344633	-6.24869E-005	0.658917	348.342
553.5000	0.1754	-9.00756E-005	0.658264	348.162
553.0000	0.291943	-0.00011561	0.657291	347.959
552.5000	-0.248056	-0.000154668	0.656479	347.72
552.0000	-0.462163	-0.00019186	0.655104	347.416
551.5000	-0.331328	-0.000219972	0.653526	347.104
551.0000	-0.181115	-0.000249701	0.65135	346.772
550.5000	-0.16272	-0.000283371	0.64908	346.414
550.0000	-0.398961	-0.000273481	0.646855	346.032
549.5000	-0.328448	-0.000307698	0.644796	345.648
549.0000	-0.473223	-0.000308504	0.64189	345.238
548.5000	-0.347876	-0.000331746	0.638996	344.842
548.0000	-0.275765	-0.000340288	0.636904	344.404
547.5000	-0.100463	-0.000344187	0.634962	344.008
547.0000	-0.195292	-0.000345251	0.632982	343.587
546.5000	-0.178403	-0.00034617	0.63079	343.21
546.0000	-0.159256	-0.000357723	0.628124	342.855
545.5000	-0.218814	-0.000360731	0.626526	342.501
545.0000	-0.757867	-0.000335827	0.625078	342.21
544.5000	-0.620797	-0.000343123	0.623636	341.909
544.0000	-0.313038	-0.000313399	0.62219	341.654
543.5000	-0.543921	-0.000310432	0.621087	341.422
543.0000	-0.577586	-0.000292479	0.620443	341.222
542.5000	-0.460149	-0.000270139	0.620326	341.047
542.0000	-0.346912	-0.00025506	0.620035	340.889
541.5000	-0.28953	-0.000256334	0.619916	340.769
541.0000	-0.341982	-0.000265262	0.61988	340.68
540.5000	-0.353844	-0.000243995	0.620718	340.609
540.0000	-0.257251	-0.000239056	0.621919	340.559
539.5000	-0.284817	-0.000214138	0.623264	340.578
539.0000	-0.273486	-0.000197866	0.624645	340.636
538.5000	-0.289154	-0.000197072	0.626503	340.724
538.0000	-0.00778809	-0.000186263	0.628919	340.827
537.5000	-0.236365	-0.00016021	0.631641	340.972
537.0000	-0.205514	-0.000181957	0.634416	341.146
536.5000	-0.143561	-0.00017132	0.637627	341.351
536.0000	-0.114213	-0.000172007	0.641358	341.591
535.5000	0.109204	-0.000144226	0.645216	341.854
535.0000	0.230943	-0.000131308	0.649542	342.148
534.5000	-0.141258	-0.000120746	0.653801	342.447
534.0000	-0.186593	-0.000120698	0.658432	342.789
533.5000	-0.0704921	-8.83083E-005	0.663216	343.17
533.0000	-0.421979	-0.000118542	0.667734	343.535
532.5000	-0.16277	-0.000124918	0.672542	343.937
532.0000	-0.555583	-0.000121985	0.67778	344.37
531.5000	-0.541386	-0.000132061	0.683352	344.824
531.0000	-0.497174	-0.000143663	0.689773	345.305
530.5000	-0.0125926	-0.000112063	0.695766	345.782
530.0000	-0.0716151	-0.000104634	0.701805	346.282
529.5000	-0.0149758	-0.000121758	0.707831	346.782
529.0000	0.175649	-0.000110155	0.713624	347.229
528.5000	0.255657	-0.000134624	0.71947	347.705
528.0000	0.0385058	-0.000163921	0.72506	348.157
527.5000	0.0341606	-0.000196712	0.730942	348.614
527.0000	0.252716	-0.000203272	0.737299	349.107
526.5000	0.0855732	-0.000242159	0.743038	349.573
526.0000	0.555625	-0.000251271	0.749276	350.058
525.5000	0.643044	-0.000281798	0.755287	350.518
525.0000	0.782188	-0.000333006	0.761359	350.99
524.5000	0.809933	-0.000331405	0.767131	351.419
524.0000	1.02506	-0.000367304	0.772417	351.803
523.5000	0.940284	-0.000374521	0.777406	352.189
523.0000	0.97276	-0.000422006	0.782156	352.549
522.5000	0.927419	-0.000466262	0.786489	352.895
522.0000	0.894686	-0.000527432	0.791084	353.239
521.5000	0.843907	-0.000575277	0.795747	353.566
521.0000	0.859349	-0.000610964	0.799992	353.869
520.5000	0.822851	-0.000650192	0.804236	354.174
520.0000	0.882319	-0.000676745	0.807907	354.429
519.5000	1.08247	-0.000674545	0.811754	354.674
519.0000	1.0682	-0.00072368	0.815302	354.915
518.5000	1.07263	-0.000745028	0.818311	355.133
518.0000	1.1396	-0.000780658	0.821715	355.357
517.5000	1.00804	-0.00084986	0.825117	355.571
517.0000	1.14815	-0.000882056	0.828574	355.767
516.5000	1.58585	-0.00092664	0.832088	355.965
516.0000	1.52349	-0.000962865	0.835356	356.16
515.5000	1.49097	-0.00101987	0.83813	356.352
515.0000	1.63075	-0.00105647	0.840912	356.534
514.5000	1.66531	-0.0010891	0.843524	356.712
514.0000	1.66814	-0.00111455	0.84605	356.87
513.5000	1.72719	-0.00115015	0.848829	357.047
513.0000	1.7484	-0.00119081	0.851148	357.214
512.5000	1.94268	-0.00120782	0.85401	357.411
512.0000	1.94595	-0.00122811	0.856752	357.59
511.5000	1.80562	-0.00128623	0.859081	357.764
511.0000	1.81627	-0.00131348	0.861476	357.927
510.5000	1.98317	-0.00135187	0.864077	358.085
510.0000	2.20093	-0.00134702	0.866589	358.237
509.5000	2.30259	-0.00135543	0.868845	358.377
509.0000	2.42082	-0.00137533	0.870955	358.515
508.5000	2.30031	-0.00139926	0.872735	358.607
508.0000	2.17396	-0.00142198	0.874747	358.689
507.5000	2.07982	-0.00144026	0.876663	358.751
507.0000	2.21327	-0.00145407	0.878631	358.813
506.5000	2.48239	-0.00146288	0.880534	358.873
506.0000	2.55953	-0.00149272	0.881907	358.919
505.5000	2.75669	-0.00149407	0.883158	358.95
505.0000	2.68548	-0.00151217	0.884453	358.978
504.5000	2.33373	-0.00152344	0.88568	358.984
504.0000	2.29063	-0.00154937	0.886441	358.945
503.5000	2.50851	-0.00156948	0.886926	358.882
503.0000	2.61268	-0.00157247	0.887333	358.793
502.5000	2.63545	-0.00158319	0.887356	358.683
502.0000	2.21095	-0.00160035	0.887194	358.56
501.5000	1.89638	-0.00164528	0.886934	358.406
501.0000	1.84556	-0.00166474	0.886353	358.205
500.5000	1.78056	-0.00164864	0.885679	357.966
500.0000	1.87495	-0.0016683	0.884784	357.687
499.5000	1.81388	-0.00167685	0.883089	357.346
499.0000	2.35007	-0.00169933	0.880922	356.882
498.5000	2.31664	-0.00171275	0.878404	356.297
498.0000	2.39491	-0.00174272	0.875494	355.579
497.5000	2.19124	-0.00177253	0.872715	354.708
497.0000	2.06239	-0.00180238	0.870473	353.799
496.5000	2.14249	-0.00180612	0.868674	352.865
496.0000	2.22549	-0.001829	0.868127	352.124
495.5000	2.27451	-0.0018489	0.867823	351.543
495.0000	2.37528	-0.00186349	0.866555	351.081
494.5000	1.93841	-0.0019	0.864552	350.65
494.0000	2.5886	-0.00192278	0.862271	350.235
493.5000	2.56378	-0.00194804	0.859742	349.793
493.0000	2.68322	-0.00197404	0.85753	349.399
492.5000	2.48008	-0.00203278	0.855225	348.996
492.0000	2.5259	-0.00206788	0.85251	348.566
491.5000	2.62671	-0.00210717	0.849844	348.187
491.0000	2.32085	-0.00213438	0.847365	347.827
490.5000	1.93386	-0.00217721	0.844917	347.51
490.0000	1.73425	-0.0022098	0.842469	347.245
489.5000	2.10177	-0.00225746	0.840027	347.043
489.0000	2.32835	-0.0022598	0.837163	346.825
488.5000	2.58362	-0.00228736	0.833626	346.553
488.0000	2.47465	-0.00232085	0.828812	346.072
487.5000	2.25297	-0.00233699	0.823352	345.361
487.0000	2.13513	-0.00237197	0.819014	344.57
486.5000	2.41924	-0.00239966	0.8145	343.641
486.0000	2.01757	-0.00242033	0.810418	342.707
485.5000	1.78572	-0.00246223	0.807616	341.794
485.0000	1.98513	-0.00247321	0.805649	340.972
484.5000	1.95029	-0.00248569	0.80328	340.289
484.0000	1.91377	-0.00248313	0.800355	339.685
483.5000	1.98938	-0.00248995	0.797415	339.166
483.0000	2.29747	-0.00247911	0.793739	338.654
482.5000	2.59118	-0.00250062	0.790024	338.226
482.0000	2.50109	-0.00250298	0.786048	337.829
481.5000	2.52325	-0.00250746	0.782111	337.435
481.0000	2.25743	-0.00251581	0.778486	337.079
480.5000	2.29558	-0.00252125	0.774559	336.739
480.0000	2.28168	-0.00252043	0.770357	336.412
479.5000	2.18707	-0.00253057	0.765976	336.077
479.0000	2.29371	-0.0025368	0.759884	335.595
478.5000	2.46182	-0.00253155	0.753034	334.856
478.0000	2.09255	-0.00254393	0.747385	333.891
477.5000	2.34353	-0.00253509	0.745008	333.1
477.0000	2.25014	-0.00251353	0.742879	332.515
476.5000	2.26899	-0.00250157	0.737271	331.841
476.0000	2.53721	-0.00248458	0.730189	330.958
475.5000	2.71412	-0.00248781	0.722785	329.844
475.0000	2.46089	-0.00251271	0.715562	328.543
474.5000	2.4695	-0.00250471	0.709292	327.163
474.0000	2.20166	-0.00250208	0.703455	325.656
473.5000	2.17058	-0.00248779	0.697012	323.919
473.0000	1.95251	-0.00247467	0.690647	322.038
472.5000	1.82105	-0.00245982	0.685401	320.054
472.0000	1.69145	-0.00243687	0.68268	318.4
471.5000	1.69995	-0.00242547	0.680785	317.093
471.0000	1.57427	-0.00240858	0.679133	316.314
470.5000	1.31552	-0.00238908	0.677408	315.821
470.0000	1.48951	-0.00237829	0.675077	315.637
469.5000	1.48295	-0.00236256	0.669982	315.476
469.0000	1.46063	-0.00235744	0.660444	314.917
468.5000	1.53773	-0.00235631	0.650966	313.971
468.0000	1.35154	-0.00236233	0.644122	312.961
467.5000	1.31145	-0.00235185	0.639277	312.116
467.0000	1.38107	-0.00232412	0.635815	311.501
466.5000	1.32621	-0.00230175	0.632746	311.088
466.0000	1.30617	-0.00228305	0.628804	310.848
465.5000	1.58302	-0.00225062	0.624604	310.829
465.0000	1.4912	-0.00223642	0.619923	311.064
464.5000	2.00564	-0.00219742	0.613567	311.432
464.0000	1.85389	-0.002185	0.604959	311.656
463.5000	1.95209	-0.00216936	0.594676	311.518
463.0000	2.10074	-0.00216886	0.584767	311.058
462.5000	2.27811	-0.00214404	0.576728	310.466
462.0000	2.12218	-0.00211412	0.570219	309.859
461.5000	2.12216	-0.00209708	0.564393	309.341
461.0000	2.16945	-0.00207729	0.55868	308.943
460.5000	2.25197	-0.00204499	0.552618	308.663
460.0000	2.3689	-0.0019956	0.546779	308.488
459.5000	2.1726	-0.00196655	0.540385	308.35
459.0000	2.21036	-0.00193851	0.532783	308.141
458.5000	2.39865	-0.00192243	0.524681	307.843
458.0000	2.41265	-0.00190461	0.516111	307.395
457.5000	2.41688	-0.00187578	0.507413	306.733
457.0000	2.42562	-0.00184026	0.499147	305.885
456.5000	2.26695	-0.00181021	0.492821	305.101
456.0000	2.10425	-0.0017846	0.48602	304.385
455.5000	2.0237	-0.00175263	0.476976	303.482
455.0000	1.94301	-0.00172439	0.468817	302.483
454.5000	1.88783	-0.00169009	0.462937	301.57
454.0000	1.84223	-0.00166243	0.457881	300.905
453.5000	2.05567	-0.00162677	0.451447	300.409
453.0000	2.09427	-0.00160215	0.444303	299.915
452.5000	1.98306	-0.00156256	0.437311	299.392
452.0000	1.82536	-0.0015365	0.430696	298.845
451.5000	1.71034	-0.00151432	0.423597	298.256
451.0000	1.80459	-0.00148829	0.41693	297.699
450.5000	1.57974	-0.00145676	0.40992	297.095
450.0000	1.39611	-0.00142056	0.40387	296.533
449.5000	1.33568	-0.00138121	0.398736	296.09
449.0000	1.30239	-0.00136687	0.393992	295.804
448.5000	1.2298	-0.00133591	0.387643	295.515
448.0000	1.41786	-0.00130357	0.380727	295.113
447.5000	1.49782	-0.00126829	0.375424	294.733
447.0000	1.37234	-0.00122945	0.37203	294.592
446.5000	1.30764	-0.00117863	0.367816	294.593
446.0000	1.33646	-0.00115889	0.360357	294.422
445.5000	1.27191	-0.0011254	0.352665	293.963
445.0000	1.15012	-0.00109076	0.346352	293.361
444.5000	1.13597	-0.00106437	0.340491	292.726
444.0000	1.39551	-0.00102004	0.334844	292.085
443.5000	1.31593	-0.000992619	0.329059	291.364
443.0000	1.13905	-0.000958375	0.324416	290.735
442.5000	1.30721	-0.000919864	0.320037	290.14
442.0000	1.38615	-0.000895298	0.315913	289.641
441.5000	1.45204	-0.000877342	0.311232	289.121
441.0000	1.49736	-0.000852815	0.306832	288.645
440.5000	1.25742	-0.000829401	0.302604	288.188
440.0000	1.09013	-0.000823343	0.29809	287.709
439.5000	1.1583	-0.000804441	0.293366	287.218
439.0000	1.12345	-0.000781302	0.288311	286.703
438.5000	1.28722	-0.000761429	0.282994	286.186
438.0000	1.33064	-0.000721502	0.277698	285.691
437.5000	1.48606	-0.000692147	0.272575	285.202
437.0000	1.47501	-0.000670607	0.267277	284.716
436.5000	1.45065	-0.000662368	0.263115	284.3
436.0000	1.51049	-0.000640604	0.259266	283.93
435.5000	1.43408	-0.000629187	0.25498	283.584
435.0000	1.40624	-0.000607414	0.250363	283.246
434.5000	1.33753	-0.000597206	0.245869	282.92
434.0000	1.3341	-0.000581646	0.241276	282.553
433.5000	1.26592	-0.000561274	0.236905	282.177
433.0000	1.18299	-0.000542764	0.232767	281.772
432.5000	1.18231	-0.000519638	0.228814	281.379
432.0000	1.14264	-0.000493539	0.224514	280.959
431.5000	0.941108	-0.000493422	0.220447	280.55
431.0000	1.04821	-0.000468599	0.216538	280.142
430.5000	0.925953	-0.000439463	0.212653	279.726
430.0000	0.731971	-0.000438926	0.20924	279.338
429.5000	0.620435	-0.000441965	0.20553	278.929
429.0000	0.625928	-0.000429829	0.201915	278.523
428.5000	0.716065	-0.000407237	0.198285	278.124
428.0000	0.633694	-0.000389758	0.19417	277.707
427.5000	0.635036	-0.000379409	0.190805	277.337
427.0000	0.478412	-0.00035456	0.187758	276.985
426.5000	0.507798	-0.00034416	0.184615	276.616
426.0000	0.439095	-0.000323766	0.181329	276.215
425.5000	0.510287	-0.000305475	0.178397	275.807
425.0000	0.490023	-0.000287868	0.175235	275.37
424.5000	0.571395	-0.000275693	0.172038	274.898
424.0000	0.717945	-0.000267599	0.169231	274.444
423.5000	0.86465	-0.000251466	0.167089	274.051
423.0000	0.870383	-0.000238375	0.164817	273.712
422.5000	0.797743	-0.000236453	0.162369	273.415
422.0000	0.720551	-0.000232142	0.159652	273.123
421.5000	0.981449	-0.000223002	0.157015	272.847
421.0000	1.0988	-0.00019899	0.154658	272.592
420.5000	1.04493	-0.000188172	0.152337	272.343
420.0000	1.10521	-0.000167442	0.149967	272.075
419.5000	1.18855	-0.000149404	0.1477	271.799
419.0000	1.21572	-0.000146326	0.145496	271.538
418.5000	1.19776	-0.000150189	0.143217	271.307
418.0000	1.19437	-0.000135432	0.141331	271.088
417.5000	1.1139	-0.000119485	0.139241	270.869
417.0000	0.910619	-0.000121706	0.137487	270.667
416.5000	1.0888	-0.000114666	0.136097	270.532
416.0000	1.0408	-0.000110337	0.13457	270.447
415.5000	0.941503	-8.72679E-005	0.132469	270.327
415.0000	0.923372	-8.298E-005	0.130322	270.167
414.5000	1.08867	-7.18607E-005	0.128528	269.965
414.0000	1.14228	-6.01538E-005	0.12718	269.761
413.5000	1.11591	-3.75459E-005	0.12609	269.561
413.0000	0.840347	-3.68141E-005	0.125015	269.376
412.5000	0.778845	-3.3149E-005	0.123967	269.217
412.0000	0.824878	-2.91457E-005	0.122948	269.07
411.5000	1.05513	-1.96149E-005	0.121679	268.924
411.0000	0.963113	-1.12412E-005	0.120597	268.798
410.5000	0.903321	-7.64862E-006	0.11982	268.692
410.0000	0.951836	-8.69645E-006	0.11908	268.589
409.5000	0.964476	-2.35958E-006	0.118457	268.508
409.0000	1.04098	3.1771E-006	0.117748	268.438
408.5000	1.17148	7.32179E-006	0.116856	268.378
408.0000	1.16162	-2.11224E-006	0.115791	268.318
407.5000	1.24782	1.08801E-006	0.114673	268.247
407.0000	1.35751	-7.57712E-006	0.113702	268.163
406.5000	1.27193	-9.86072E-006	0.112977	268.085
406.0000	1.23603	-6.82903E-006	0.112258	268.004
405.5000	1.22075	-2.16713E-006	0.111371	267.913
405.0000	1.29209	-3.1555E-006	0.110525	267.805
404.5000	1.23806	1.63843E-005	0.109793	267.686
404.0000	1.17579	7.53738E-006	0.109278	267.532
403.5000	0.981026	2.01886E-005	0.108868	267.363
403.0000	0.806247	5.27194E-006	0.108789	267.181
402.5000	0.94849	1.14006E-005	0.108249	266.973
402.0000	0.832685	1.19062E-005	0.108217	266.782
401.5000	0.771519	1.08748E-005	0.108408	266.58
401.0000	0.768759	1.9E-005	0.108292	266.391
400.5000	0.66719	2.59497E-005	0.108405	266.233
400.0000	0.729288	3.68925E-005	0.108446	266.101
399.5000	0.703903	4.56711E-005	0.108911	265.971
399.0000	0.575212	4.96118E-005	0.109427	265.878
398.5000	0.464656	4.94352E-005	0.109713	265.799
398.0000	0.475192	5.39641E-005	0.109877	265.734
397.5000	0.372715	6.54422E-005	0.11005	265.695
397.0000	0.362808	6.30088E-005	0.110574	265.683
396.5000	0.455842	5.52765E-005	0.110912	265.702
396.0000	0.516643	5.791E-005	0.111193	265.734
395.5000	0.510231	4.89784E-005	0.111203	265.799
395.0000	0.48013	5.79068E-005	0.111359	265.892
394.5000	0.477583	6.39011E-005	0.111803	266.025
394.0000	0.475163	7.49987E-005	0.112249	266.179
393.5000	0.430426	7.52796E-005	0.112228	266.336
393.0000	0.361035	6.59997E-005	0.112037	266.504
392.5000	0.519423	7.69605E-005	0.11204	266.664
392.0000	0.536784	7.78029E-005	0.112331	266.815
391.5000	0.517147	7.76304E-005	0.112697	266.938
391.0000	0.491391	6.65962E-005	0.113053	267.062
390.5000	0.60524	6.4769E-005	0.113177	267.176
390.0000	0.501428	8.25425E-005	0.113308	267.281
389.5000	0.649099	8.78251E-005	0.113806	267.38
389.0000	0.739859	7.70784E-005	0.114376	267.464
388.5000	0.700854	8.83243E-005	0.114772	267.548
388.0000	0.74567	8.36328E-005	0.115064	267.63
387.5000	0.79835	7.92245E-005	0.115617	267.704
387.0000	0.695296	8.06492E-005	0.116612	267.772
386.5000	0.61636	7.7099E-005	0.117188	267.814
386.0000	0.577395	6.88715E-005	0.118102	267.869
385.5000	0.494328	6.11558E-005	0.119005	267.919
385.0000	0.551036	6.73324E-005	0.119878	267.96
384.5000	0.425911	7.03562E-005	0.120761	268.001
384.0000	0.345131	6.67508E-005	0.121819	268.045
383.5000	0.466966	7.31878E-005	0.12266	268.093
383.0000	0.644621	8.14201E-005	0.123327	268.138
382.5000	0.774512	8.90323E-005	0.124083	268.184
382.0000	0.747667	0.000105489	0.125391	268.24
381.5000	0.657746	9.18386E-005	0.126669	268.283
381.0000	0.646748	0.000109305	0.127871	268.347
380.5000	0.624252	0.000103323	0.128861	268.409
380.0000	0.579512	0.000108396	0.130083	268.47
379.5000	0.432835	0.000127431	0.131362	268.533
379.0000	0.51049	0.000129596	0.132236	268.592
378.5000	0.626938	0.000136142	0.132792	268.651
378.0000	0.68333	0.000142021	0.133503	268.719
377.5000	0.862034	0.000138504	0.134211	268.772
377.0000	0.992068	0.000137992	0.134794	268.814
376.5000	1.12355	0.0001336	0.135742	268.866
376.0000	1.24431	0.000126792	0.136569	268.901
375.5000	1.23161	0.000119394	0.137139	268.93
375.0000	1.15664	0.000112515	0.13772	268.951
374.5000	0.952982	0.0001094	0.138316	268.967
374.0000	0.83982	9.75818E-005	0.138859	268.974
373.5000	0.886288	8.35828E-005	0.139281	268.978
373.0000	0.929827	6.19184E-005	0.139556	268.991
372.5000	0.89929	5.03803E-005	0.139752	268.988
372.0000	1.02701	4.84362E-005	0.140063	268.99
371.5000	0.949908	4.21923E-005	0.140222	268.987
371.0000	0.867646	2.72035E-005	0.140754	269.001
370.5000	0.829714	2.55476E-005	0.141354	269.016
370.0000	0.743105	9.74077E-006	0.141857	269.037
369.5000	0.752842	-3.11951E-006	0.142322	269.061
369.0000	0.809672	8.35744E-006	0.142861	269.092
368.5000	0.710701	7.0951E-006	0.143568	269.133
368.0000	0.439508	1.00993E-005	0.143979	269.173
367.5000	0.238953	5.22026E-007	0.144592	269.225
367.0000	0.451452	-6.48105E-006	0.14549	269.287
366.5000	0.517553	-4.92098E-006	0.146068	269.349
366.0000	0.465834	-3.45453E-006	0.146772	269.433
365.5000	0.496883	-2.92095E-006	0.147426	269.514
365.0000	0.508504	4.20886E-006	0.147815	269.584
364.5000	0.451309	-1.90279E-006	0.14846	269.655
364.0000	0.402869	-5.98814E-006	0.149	269.735
363.5000	0.514271	-1.70952E-005	0.149913	269.82
363.0000	0.728897	-2.49091E-005	0.150761	269.904
362.5000	0.756167	-3.20545E-005	0.151417	269.983
362.0000	0.7743	-3.76185E-005	0.152137	270.071
361.5000	0.834081	-3.16815E-005	0.152954	270.151
361.0000	0.625014	-3.80901E-005	0.1537	270.228
360.5000	0.56428	-2.9644E-005	0.154351	270.315
360.0000	0.728611	-3.14753E-005	0.155129	270.405
359.5000	0.885778	-3.0549E-005	0.155709	270.485
359.0000	0.895989	-2.93626E-005	0.156009	270.56
358.5000	0.891389	-3.11691E-005	0.156237	270.64
358.0000	0.857299	-4.49398E-005	0.156439	270.714
357.5000	0.818205	-4.55583E-005	0.156687	270.793
357.0000	0.821594	-6.05098E-005	0.157039	270.859
356.5000	0.780862	-6.68401E-005	0.157747	270.928
356.0000	0.891989	-6.80166E-005	0.158172	271.005
355.5000	0.857939	-8.09806E-005	0.158597	271.083
355.0000	0.948929	-8.20625E-005	0.158885	271.159
354.5000	0.801291	-9.21043E-005	0.158985	271.221
354.0000	0.868449	-8.74877E-005	0.159374	271.298
353.5000	0.818961	-9.26639E-005	0.159734	271.372
353.0000	0.791412	-9.83548E-005	0.160056	271.451
352.5000	0.861237	-9.86854E-005	0.16061	271.547
352.0000	1.05694	-0.000125213	0.160961	271.624
351.5000	1.14462	-0.000136485	0.161278	271.696
351.0000	1.02194	-0.000144515	0.16205	271.778
350.5000	1.09171	-0.000157986	0.162855	271.853
350.0000	1.03365	-0.000166993	0.163738	271.931
349.5000	1.01068	-0.0001771	0.164729	272.011
349.0000	1.11204	-0.000175317	0.165828	272.093
348.5000	1.13209	-0.000170305	0.167098	272.183
348.0000	1.16829	-0.000171314	0.167945	272.258
347.5000	1.12049	-0.000172018	0.169109	272.336
347.0000	1.10069	-0.000161475	0.170345	272.417
346.5000	0.971727	-0.000173063	0.171352	272.496
346.0000	0.947205	-0.000183484	0.172252	272.572
345.5000	0.966005	-0.000206484	0.173405	272.654
345.0000	1.02147	-0.000213492	0.174574	272.736
344.5000	1.07726	-0.000225372	0.17572	272.814
344.0000	0.995308	-0.000246736	0.177044	272.892
343.5000	0.874643	-0.000253296	0.17796	272.957
343.0000	0.795847	-0.00026994	0.178832	273.028
342.5000	0.859397	-0.000266086	0.179541	273.098
342.0000	0.932542	-0.000275135	0.180403	273.183
341.5000	0.998049	-0.000272716	0.18124	273.258
341.0000	1.09285	-0.000267541	0.182305	273.335
340.5000	1.16694	-0.00029206	0.183005	273.404
340.0000	1.05106	-0.00030179	0.183876	273.491
339.5000	1.22504	-0.000318585	0.184503	273.579
339.0000	1.32092	-0.000334474	0.18541	273.667
338.5000	1.30273	-0.000346605	0.186359	273.753
338.0000	1.38133	-0.000349431	0.187382	273.851
337.5000	1.4446	-0.000341475	0.18823	273.94
337.0000	1.44506	-0.000347686	0.188958	274.029
336.5000	1.42778	-0.000358091	0.189834	274.111
336.0000	1.6913	-0.000356512	0.190661	274.201
335.5000	1.84896	-0.000362051	0.191512	274.292
335.0000	1.96223	-0.000362997	0.192428	274.389
334.5000	1.97827	-0.000382456	0.19339	274.498
334.0000	2.01523	-0.000401638	0.194587	274.618
333.5000	2.12095	-0.000421354	0.196005	274.726
333.0000	1.96729	-0.000437785	0.197072	274.833
332.5000	1.97468	-0.000465787	0.197867	274.943
332.0000	1.94127	-0.000463297	0.198773	275.056
331.5000	2.09402	-0.000479033	0.199913	275.17
331.0000	2.05988	-0.000498691	0.201193	275.294
330.5000	2.11381	-0.000517312	0.202115	275.405
330.0000	2.03926	-0.000532515	0.203118	275.515
329.5000	2.15461	-0.000543433	0.204228	275.636
329.0000	2.23636	-0.000571181	0.205165	275.751
328.5000	2.31369	-0.000581285	0.206263	275.869
328.0000	2.40346	-0.00059438	0.207169	275.979
327.5000	2.12848	-0.000627549	0.208258	276.088
327.0000	2.15383	-0.000660231	0.209583	276.195
326.5000	2.23147	-0.000672035	0.211166	276.322
326.0000	2.16177	-0.000682254	0.212772	276.449
325.5000	2.12127	-0.000700362	0.214212	276.581
325.0000	2.02028	-0.000727113	0.215428	276.723
324.5000	2.16125	-0.000757876	0.216895	276.874
324.0000	2.21096	-0.000780572	0.21867	277.036
323.5000	2.20945	-0.000811574	0.220501	277.193
323.0000	2.08071	-0.000837471	0.222193	277.362
322.5000	2.08593	-0.000854947	0.223808	277.528
322.0000	1.9855	-0.000871159	0.22541	277.705
321.5000	2.09845	-0.000898244	0.227302	277.886
321.0000	1.98328	-0.000929511	0.229271	278.072
320.5000	1.91992	-0.000959106	0.231419	278.267
320.0000	1.80533	-0.000973706	0.23318	278.443
319.5000	1.96113	-0.000995329	0.235041	278.627
319.0000	1.94704	-0.00099254	0.236864	278.831
318.5000	1.90486	-0.00100835	0.238744	279.05
318.0000	1.86467	-0.00102315	0.240413	279.245
317.5000	2.11793	-0.00103901	0.242063	279.419
317.0000	1.95768	-0.00105297	0.243902	279.584
316.5000	2.12274	-0.00105559	0.245868	279.747
316.0000	2.18506	-0.00107647	0.248045	279.932
315.5000	2.22419	-0.00107859	0.24986	280.117
315.0000	2.29493	-0.00107764	0.251748	280.319
314.5000	2.13609	-0.00109392	0.253593	280.519
314.0000	2.29634	-0.00109928	0.255606	280.724
313.5000	2.55701	-0.00111891	0.257825	280.944
313.0000	2.74904	-0.00113314	0.260053	281.176
312.5000	2.7414	-0.00113854	0.262018	281.394
312.0000	2.78033	-0.00115313	0.264391	281.632
311.5000	2.78674	-0.00117331	0.26676	281.882
311.0000	2.85843	-0.00119087	0.269426	282.136
310.5000	2.99353	-0.00122313	0.271919	282.415
310.0000	2.94193	-0.00124147	0.274471	282.679
309.5000	3.14096	-0.00126986	0.277384	282.973
309.0000	3.13093	-0.00129441	0.28069	283.31
308.5000	3.17008	-0.0013141	0.283909	283.668
308.0000	3.06585	-0.00133455	0.286934	284.003
307.5000	3.0682	-0.00134564	0.290357	284.37
307.0000	3.17317	-0.00136734	0.293922	284.73
306.5000	3.30565	-0.00139529	0.297937	285.132
306.0000	3.59336	-0.00140552	0.302204	285.545
305.5000	3.56889	-0.00142259	0.306478	285.987
305.0000	3.58264	-0.00145433	0.310983	286.439
304.5000	3.54058	-0.00145779	0.316	286.926
304.0000	3.67082	-0.00148149	0.321445	287.446
303.5000	3.5419	-0.00149506	0.32686	287.964
303.0000	3.53201	-0.00151281	0.332687	288.544
302.5000	3.53993	-0.00153514	0.338749	289.153
302.0000	3.55773	-0.00154997	0.345421	289.8
301.5000	3.61119	-0.00156194	0.352381	290.473
301.0000	3.65487	-0.00157594	0.359181	291.152
300.5000	3.66447	-0.00159078	0.365319	291.769
300.0000	3.62098	-0.00162061	0.373102	292.518
299.5000	3.8313	-0.00164664	0.380587	293.251
299.0000	4.02187	-0.00165418	0.38812	294.004
298.5000	3.94842	-0.00166972	0.395916	294.795
298.0000	3.9061	-0.00168794	0.403235	295.53
297.5000	3.72657	-0.00170293	0.411002	296.304
297.0000	3.68237	-0.00170547	0.418347	296.995
296.5000	3.6218	-0.00171096	0.425388	297.676
296.0000	3.69206	-0.00170182	0.43247	298.368
295.5000	3.78638	-0.00169379	0.439816	299.057
295.0000	3.7833	-0.00170344	0.446604	299.678
294.5000	3.70256	-0.00169694	0.453442	300.317
294.0000	3.56629	-0.0016737	0.460305	301.001
293.5000	3.68023	-0.00167434	0.46571	301.559
293.0000	3.46431	-0.00164781	0.471789	302.175
292.5000	3.43933	-0.00163502	0.477845	302.812
292.0000	3.42394	-0.00159911	0.483333	303.405
291.5000	3.33342	-0.00156582	0.488719	303.977
291.0000	3.2216	-0.00154348	0.493993	304.536
290.5000	3.18304	-0.00152769	0.499635	305.126
290.0000	3.0069	-0.00148948	0.505272	305.696
289.5000	2.94548	-0.0014584	0.51041	306.246
289.0000	3.00285	-0.00142374	0.515541	306.803
288.5000	3.05817	-0.0013965	0.521166	307.421
288.0000	2.84821	-0.00135817	0.526492	308.015
287.5000	2.83943	-0.00133287	0.531899	308.629
287.0000	2.66785	-0.00129761	0.537382	309.292
286.5000	2.65648	-0.00123437	0.542746	309.965
286.0000	2.62713	-0.00120919	0.548175	310.608
285.5000	2.53256	-0.00117006	0.553823	311.223
285.0000	2.38392	-0.00113832	0.559838	311.88
284.5000	2.18965	-0.0010999	0.565418	312.496
284.0000	2.10655	-0.00107907	0.571461	313.159
283.5000	2.01154	-0.00104592	0.577751	313.835
283.0000	1.82257	-0.00101756	0.58383	314.495
282.5000	1.44084	-0.000969014	0.590453	315.208
282.0000	1.17995	-0.000904918	0.596943	315.942
281.5000	1.04472	-0.000886804	0.603144	316.652
281.0000	1.01213	-0.000849658	0.60962	317.371
280.5000	0.819548	-0.000809165	0.616429	318.149
280.0000	0.747247	-0.000763413	0.623492	318.952
279.5000	0.618908	-0.00072504	0.630778	319.789
279.0000	0.438919	-0.000679409	0.637904	320.62
278.5000	0.374426	-0.000649936	0.645732	321.52
278.0000	0.289939	-0.000630652	0.654648	322.493
277.5000	0.37187	-0.000571474	0.663182	323.427
277.0000	0.187432	-0.000529103	0.672265	324.451
276.5000	0.281649	-0.000470124	0.681622	325.521
276.0000	0.331527	-0.000416095	0.690398	326.519
275.5000	0.372028	-0.00036109	0.700752	327.666
275.0000	0.436554	-0.000305588	0.711453	328.86
274.5000	0.569675	-0.000269673	0.722502	330.115
274.0000	0.785183	-0.00022783	0.734434	331.502
273.5000	0.936641	-0.000188848	0.745997	332.813
273.0000	0.857551	-0.000138272	0.758764	334.257
272.5000	0.886045	-9.5114E-005	0.771999	335.767
272.0000	0.782364	-4.96282E-005	0.785608	337.341
271.5000	0.698185	-1.89634E-006	0.800745	339.093
271.0000	0.916819	4.88844E-005	0.816177	340.848
270.5000	0.914372	9.33621E-005	0.832513	342.693
270.0000	1.13858	0.000156425	0.849209	344.621
269.5000	1.30347	0.00020324	0.866238	346.633
269.0000	1.27868	0.000248832	0.883291	348.64
268.5000	1.19694	0.000265082	0.902261	350.866
268.0000	0.993538	0.000259867	0.922166	353.198
267.5000	0.890664	0.000278263	0.942853	355.64
267.0000	0.634433	0.000316372	0.96534	358.342
266.5000	0.556024	0.00036554	0.988516	361.164
266.0000	0.712964	0.00039993	1.01061	363.815
265.5000	0.512342	0.000417321	1.03468	366.689
265.0000	0.542389	0.000444144	1.06014	369.794
264.5000	0.378329	0.000449398	1.08481	372.849
264.0000	0.268863	0.000472292	1.10981	375.967
263.5000	0.0747333	0.000518716	1.13672	379.31
263.0000	-0.229186	0.000517917	1.16128	382.387
262.5000	-0.364503	0.000508629	1.1883	385.84
262.0000	-0.528529	0.0004884	1.21382	389.172
261.5000	-0.50456	0.000474224	1.23994	392.57
261.0000	-0.979505	0.000517144	1.26541	395.853
260.5000	-0.539512	0.000529191	1.29242	399.376
260.0000	-0.0159854	0.000582046	1.31969	402.978
259.5000	0.241444	0.000565118	1.34733	406.67
259.0000	0.560775	0.000587542	1.3753	410.462
258.5000	0.519999	0.000592165	1.40426	414.368
258.0000	0.235431	0.000560452	1.434	418.403
257.5000	0.594749	0.000555576	1.46291	422.35
257.0000	1.00091	0.00052482	1.49447	426.686
256.5000	0.740625	0.000449908	1.52556	430.976
256.0000	0.498957	0.000475172	1.55977	435.704
255.5000	0.588905	0.000425872	1.5954	440.644
255.0000	0.175943	0.000378896	1.63242	445.828
254.5000	0.824891	0.000377574	1.66907	451
254.0000	1.30674	0.000258021	1.70703	456.391
253.5000	1.00761	0.000195047	1.75125	462.654
253.0000	1.01822	0.00013995	1.7925	468.583
252.5000	0.290533	7.55395E-005	1.85567	477.823
252.0000	0.18196	-5.54968E-005	1.90993	485.843
251.5000	-0.250414	-0.000134369	1.95891	493.142
251.0000	-0.143551	-0.0002003	2.00995	500.779
250.5000	-0.320881	-0.000230698	2.06223	508.725
250.0000	-0.488907	-0.000257131	2.11329	516.599
249.5000	-1.671	-0.000418732	2.16572	524.789
249.0000	-2.73369	-0.000309523	2.22264	533.781
248.5000	-3.77941	-0.000407643	2.27854	542.691
248.0000	-5.18489	-0.000516048	2.33887	552.448
247.5000	-5.13724	-0.00053964	2.39766	562.116
247.0000	-1.82146	-0.000637883	2.46129	572.747
246.5000	-0.587542	-0.000551601	2.52722	583.896
246.0000	-0.896268	-0.000705437	2.59543	595.584
245.5000	-0.569761	-0.000813596	2.66886	608.452
245.0000	-2.80807	-0.001093	2.7447	621.975
244.5000	-2.64714	-0.00114585	2.82268	636.122
244.0000	-1.58504	-0.00117714	2.90258	650.927
243.5000	0.455019	-0.00121943	2.98	665.579
243.0000	-2.14215	-0.00131582	3.05834	680.744
242.5000	-1.46823	-0.00116556	3.14524	697.942
242.0000	0.47106	-0.00105942	3.22065	713.19
241.5000	1.85058	-0.00103437	3.30384	730.368
241.0000	1.49693	-0.00118443	3.37749	745.913
240.5000	4.35986	-0.000960387	3.457	763.156
240.0000	4.10189	-0.000891366	3.52672	778.611
239.5000	6.12119	-0.000843162	3.60411	796.168
239.0000	3.29516	-0.000747362	3.66746	810.844
238.5000	1.77088	-0.000444113	3.73007	825.692
238.0000	-4.1329	-0.000408886	3.79081	840.529
237.5000	-0.224443	-0.000293567	3.84076	853.086
237.0000	1.45304	0.000166395	3.88847	865.402
236.5000	-1.81712	0.000173158	3.9309	876.684
236.0000	-0.747975	0.000532567	3.96656	886.448
235.5000	-5.1427	0.000664491	4.00165	896.504
235.0000	-8.30609	0.000595682	4.02206	902.618
234.5000	-6.27803	0.000912627	4.04087	908.471
234.0000	-7.31836	0.000884226	4.05768	913.968
233.5000	-7.8092	0.000749229	4.0726	919.193
233.0000	-9.73689	0.000921643	4.08414	923.74
232.5000	-11.5406	0.00087698	4.0913	927.248
232.0000	-14.2037	0.000648476	4.09571	930.467
231.5000	-15.185	0.000567488	4.09653	932.507
231.0000	-14.8938	0.000739041	4.09498	934.219
230.5000	-12.9183	0.00026735	4.09123	935.508
230.0000	-11.0097	0.000331643	4.08609	936.47
229.5000	-9.84013	0.000128157	4.07922	937.14
229.0000	-8.77688	0.000154793	4.07128	937.614
228.5000	-8.69099	5.64652E-005	4.06317	938.036
228.0000	-10.0941	0.000227207	4.0547	938.282
227.5000	-13.656	3.68229E-005	4.04484	938.452
227.0000	-9.22018	0.000237021	4.03468	938.586
226.5000	-4.80827	0.000207067	4.0238	938.694
226.0000	-4.17207	1.98677E-005	4.01359	938.782
225.5000	-1.49435	-0.000332866	4.00225	938.793
225.0000	-1.47706	-2.20821E-005	3.99044	938.841
224.5000	-1.11127	-0.000130802	3.97831	938.885
224.0000	-1.9352	7.83909E-005	3.96613	938.905
223.5000	2.42196	0.000166845	3.95426	938.93
223.0000	2.6948	0.000281556	3.9425	938.944
222.5000	4.33588	0.000329668	3.92827	939.043
222.0000	-0.5394	0.000392321	3.91477	939.033
221.5000	0.869456	0.000262963	3.90076	939.076
221.0000	3.0147	0.000534064	3.88869	939.094
220.5000	2.95828	0.000448531	3.87636	939.075
220.0000	4.29824	0.000377384	3.86339	939.073

##### Extended Information
[Comments]
Sample name	JS187+JS190_5E-5_H2O_48-52_100EQDT+72H
Comment
User
Division
Company	Labo systeme complexes hors equilibre

[Detailed Information]
Creation date	1/26/2024 11:11 AM

Data array type	Linear data array * 4
Horizontal axis	Wavelength [nm]
Vertical axis(1)	CD [mdeg]
Vertical axis(2)	LD [dOD]
Vertical axis(3)	Abs
Vertical axis(4)	HT [V]
Start	700 nm
End	220 nm
Data interval	0.5 nm
Data points	961     

[Measurement Information]
Instrument name	CD Jasco
Model name	J-1500
Serial No.	A005261638

Detector	PM-539
Detector S/N	A0052PM539
  Lock-in amp.	X mode
  HT volt	Auto

Detector	EXPML-535
Detector S/N	A0001
  Lock-in amp.	X mode
  HT volt	Auto

Measurement date	1/26/2024 11:11 AM

Overload detect	1
Photometric mode	CD, LD, Abs, HT
Measure range	700 - 220 nm
Data pitch	0.5 nm
CD scale	200 mdeg/1.0 dOD
FL scale	200 mdeg/1.0 dOD
D.I.T.	1 sec
Bandwidth	1.00 nm
Start mode	Immediately
Scanning speed	500 nm/min
Baseline correction	Baseline
Shutter control	Auto


