TITLE	JS187+JS190_5E-5_H2O_70-30_100EQDT+72H
DATA TYPE	
ORIGIN	JASCO
OWNER	
DATE	24/01/26
TIME	09:58:08
SPECTROMETER/DATA SYSTEM	
LOCALE	1033
RESOLUTION	
DELTAX	-0.5
XUNITS	NANOMETERS
YUNITS	CD [mdeg]
Y2UNITS	LD [dOD]
Y3UNITS	ABSORBANCE
Y4UNITS	HT [V]
FIRSTX	  700.0000
LASTX	  220.0000
NPOINTS	     961
FIRSTY	     0.32436
MAXY	    34.84919
MINY	   -16.32119
XYDATA
700.0000	0.324364	-0.0004181	0.0102482	305.327
699.5000	-0.0423955	-0.000428777	0.00955507	305.055
699.0000	0.0439715	-0.00043422	0.00876935	304.729
698.5000	0.173792	-0.000436217	0.00846317	304.364
698.0000	0.251113	-0.000436961	0.00775877	303.961
697.5000	0.033082	-0.000423304	0.00659386	303.54
697.0000	-0.124835	-0.000395344	0.0050072	303.061
696.5000	-0.110389	-0.000393963	0.00430678	302.583
696.0000	-0.0186588	-0.000380162	0.0042297	302.047
695.5000	-0.0128929	-0.000398429	0.00414741	301.512
695.0000	0.156522	-0.00041138	0.00458793	301.028
694.5000	0.0421721	-0.000418106	0.00481711	300.545
694.0000	0.0192711	-0.000413721	0.0061749	300.092
693.5000	0.193802	-0.000408703	0.00776867	299.665
693.0000	0.0805394	-0.000405406	0.0101068	299.308
692.5000	0.0649675	-0.000422748	0.01247	298.977
692.0000	0.0573112	-0.000406756	0.014756	298.679
691.5000	0.180734	-0.000418728	0.0173111	298.416
691.0000	-0.122843	-0.000423485	0.0197076	298.157
690.5000	-0.15325	-0.000401481	0.0214253	297.939
690.0000	-0.0582799	-0.00039687	0.0228219	297.738
689.5000	-0.188616	-0.000377579	0.0241727	297.557
689.0000	-0.293356	-0.000387595	0.0261463	297.417
688.5000	-0.126524	-0.000401957	0.0278616	297.333
688.0000	-0.444244	-0.000392181	0.0305136	297.365
687.5000	-0.627253	-0.000398401	0.0337448	297.499
687.0000	-0.762381	-0.000380057	0.0366559	297.682
686.5000	-0.82809	-0.000409661	0.0391296	297.913
686.0000	-0.746134	-0.000417702	0.0402941	298.155
685.5000	-0.711029	-0.000416986	0.0404699	298.407
685.0000	-0.760206	-0.000420925	0.0402741	298.659
684.5000	-1.00841	-0.000442062	0.0393897	298.89
684.0000	-0.867375	-0.0004276	0.0380326	299.114
683.5000	-0.870623	-0.000425268	0.0371904	299.348
683.0000	-0.71852	-0.000412464	0.0362784	299.589
682.5000	-0.755637	-0.000422483	0.0358699	299.832
682.0000	-0.413622	-0.000428376	0.0354413	300.111
681.5000	-0.454571	-0.00045104	0.0355544	300.394
681.0000	-0.303262	-0.000443835	0.0359038	300.712
680.5000	-0.0936207	-0.000427472	0.0362409	301.005
680.0000	-0.174636	-0.000444544	0.0351866	301.236
679.5000	-0.235181	-0.000466473	0.033505	301.4
679.0000	-0.195041	-0.000460076	0.030536	301.488
678.5000	-0.271563	-0.000468755	0.0286039	301.54
678.0000	-0.173546	-0.000475376	0.026612	301.546
677.5000	0.0875149	-0.000454544	0.0254563	301.54
677.0000	-0.0554643	-0.00043204	0.0249409	301.522
676.5000	0.133873	-0.000424516	0.0251859	301.506
676.0000	0.0451596	-0.000425161	0.025363	301.48
675.5000	0.134637	-0.000416613	0.0255584	301.455
675.0000	-0.198368	-0.000427791	0.0259842	301.437
674.5000	-0.165684	-0.000426941	0.0268976	301.435
674.0000	-0.465413	-0.00041437	0.027834	301.438
673.5000	-0.523952	-0.000411372	0.0289605	301.459
673.0000	-0.716823	-0.000396978	0.0290553	301.477
672.5000	-0.880252	-0.000420019	0.0290105	301.493
672.0000	-0.828467	-0.000403079	0.029388	301.525
671.5000	-0.747447	-0.000385583	0.0302547	301.56
671.0000	-0.812589	-0.000392068	0.0313036	301.616
670.5000	-0.791728	-0.000375521	0.0325451	301.673
670.0000	-0.869285	-0.000333487	0.0335026	301.726
669.5000	-0.663007	-0.000311883	0.0339916	301.787
669.0000	-0.592007	-0.000323499	0.0345186	301.851
668.5000	-0.332419	-0.000360905	0.0350773	301.921
668.0000	-0.196566	-0.000373097	0.0355729	302.018
667.5000	-0.205922	-0.00037784	0.0361122	302.136
667.0000	-0.283687	-0.000360825	0.0362834	302.246
666.5000	-0.304684	-0.000366117	0.0363181	302.342
666.0000	-0.0806271	-0.000336223	0.0355762	302.44
665.5000	-0.0988763	-0.00034557	0.0352899	302.542
665.0000	-0.080814	-0.000338347	0.0359302	302.655
664.5000	0.14711	-0.000335416	0.0367977	302.761
664.0000	-0.00395055	-0.00032885	0.0369323	302.862
663.5000	-0.0532227	-0.000325441	0.0359489	302.95
663.0000	0.268784	-0.000326515	0.0356151	303.02
662.5000	0.100967	-0.000311257	0.0353026	303.096
662.0000	0.220362	-0.000347956	0.0349107	303.16
661.5000	-0.112755	-0.000355915	0.0350096	303.209
661.0000	-0.152079	-0.000349206	0.0348068	303.254
660.5000	-0.192633	-0.000311299	0.0343375	303.283
660.0000	0.0453588	-0.000295054	0.0339696	303.286
659.5000	-0.0729342	-0.000276883	0.0331483	303.278
659.0000	-0.188413	-0.00029001	0.0325471	303.255
658.5000	-0.120862	-0.000287891	0.0321874	303.221
658.0000	-0.137839	-0.000298554	0.0322023	303.171
657.5000	0.0640617	-0.000297134	0.0315417	303.091
657.0000	-0.0440713	-0.000293117	0.0318741	303.003
656.5000	-0.195045	-0.000288505	0.0309778	302.881
656.0000	-0.162958	-0.000280223	0.0301074	302.737
655.5000	-0.0176398	-0.000291523	0.0306999	302.582
655.0000	-0.133474	-0.00029607	0.0304402	302.397
654.5000	-0.232815	-0.00030868	0.0297025	302.215
654.0000	-0.36938	-0.00031764	0.0295783	302.015
653.5000	-0.140788	-0.000304723	0.0303282	301.839
653.0000	-0.137549	-0.000295911	0.0312941	301.663
652.5000	-0.146669	-0.000293629	0.0322393	301.513
652.0000	-0.221505	-0.000297184	0.0334089	301.393
651.5000	-0.431687	-0.00029411	0.0350499	301.3
651.0000	-0.369796	-0.000320421	0.0372737	301.246
650.5000	-0.393581	-0.000307326	0.0387452	301.218
650.0000	-0.253409	-0.000310252	0.0406192	301.213
649.5000	-0.4666	-0.000301051	0.0419088	301.227
649.0000	-0.388096	-0.000292299	0.0435207	301.272
648.5000	-0.25677	-0.000308986	0.0440587	301.325
648.0000	0.0455624	-0.000306453	0.0452503	301.43
647.5000	0.134346	-0.000297026	0.0463152	301.549
647.0000	0.272919	-0.000280944	0.0469274	301.698
646.5000	0.144878	-0.000271048	0.0475335	301.868
646.0000	0.524668	-0.000241817	0.0489963	302.036
645.5000	0.306662	-0.000243238	0.049666	302.203
645.0000	0.385109	-0.000263735	0.0491431	302.351
644.5000	0.27822	-0.000257874	0.0489306	302.482
644.0000	0.320776	-0.000247012	0.0486873	302.573
643.5000	0.0244428	-0.000272728	0.0481755	302.65
643.0000	0.238177	-0.000278662	0.0476214	302.694
642.5000	0.448666	-0.000269431	0.0471228	302.715
642.0000	0.640139	-0.000248228	0.0468059	302.716
641.5000	0.709933	-0.000248062	0.0465143	302.712
641.0000	0.645702	-0.000255436	0.0465138	302.688
640.5000	0.406763	-0.000259161	0.0469906	302.659
640.0000	0.422916	-0.000257405	0.0476887	302.618
639.5000	0.352787	-0.000262227	0.0486585	302.56
639.0000	0.181068	-0.000253189	0.049348	302.491
638.5000	0.192163	-0.000272822	0.0504719	302.41
638.0000	-0.00273717	-0.000280518	0.0508862	302.315
637.5000	0.110175	-0.000261219	0.0511432	302.223
637.0000	0.00700228	-0.000241844	0.0524592	302.148
636.5000	0.250193	-0.000261834	0.0534084	302.065
636.0000	0.102853	-0.000283421	0.0539222	302.009
635.5000	0.341321	-0.000262405	0.054416	301.943
635.0000	0.208886	-0.000245493	0.0553893	301.886
634.5000	0.12364	-0.000241353	0.0562948	301.836
634.0000	-0.235657	-0.000250641	0.0571035	301.789
633.5000	-0.311997	-0.0002755	0.0574991	301.742
633.0000	-0.30194	-0.000289581	0.0584897	301.704
632.5000	-0.223689	-0.000282946	0.0587698	301.66
632.0000	-0.222179	-0.00029016	0.0590795	301.619
631.5000	-0.264132	-0.000289764	0.0596822	301.578
631.0000	-0.0329433	-0.00027981	0.0603661	301.55
630.5000	0.00706463	-0.000293214	0.0610018	301.519
630.0000	-0.0695201	-0.000292846	0.0617308	301.489
629.5000	0.0403335	-0.000300993	0.0625835	301.457
629.0000	-0.10415	-0.00028529	0.0632199	301.428
628.5000	-0.140763	-0.000300903	0.0636481	301.398
628.0000	-0.123712	-0.000276107	0.0642974	301.362
627.5000	-0.204428	-0.000269513	0.0652535	301.323
627.0000	-0.380879	-0.000293991	0.0656381	301.279
626.5000	-0.185492	-0.000286576	0.0658416	301.247
626.0000	-0.222511	-0.000301317	0.0660342	301.206
625.5000	-0.295999	-0.000295497	0.0669013	301.17
625.0000	-0.413065	-0.000294108	0.0680171	301.151
624.5000	-0.538869	-0.000288099	0.0691134	301.133
624.0000	-0.609027	-0.000254721	0.0701976	301.134
623.5000	-0.582644	-0.000243149	0.0712597	301.138
623.0000	-0.783639	-0.000248294	0.072304	301.155
622.5000	-1.03401	-0.00024841	0.0734628	301.182
622.0000	-1.00484	-0.000225021	0.0743725	301.22
621.5000	-0.913321	-0.000231154	0.0753936	301.277
621.0000	-0.908592	-0.000233553	0.0766142	301.356
620.5000	-0.80687	-0.000243762	0.0773597	301.427
620.0000	-0.679355	-0.000236502	0.0778992	301.501
619.5000	-0.828359	-0.000241534	0.078884	301.608
619.0000	-0.790993	-0.000246341	0.0803934	301.739
618.5000	-0.831588	-0.000231629	0.0824813	301.9
618.0000	-1.20057	-0.000235461	0.0844427	302.05
617.5000	-0.918072	-0.00022481	0.0852998	302.199
617.0000	-1.01407	-0.000217133	0.0859696	302.362
616.5000	-0.90254	-0.000231351	0.0866334	302.52
616.0000	-0.686777	-0.000237282	0.0877347	302.676
615.5000	-0.581506	-0.000255577	0.0883229	302.822
615.0000	-0.293275	-0.000261236	0.0889134	302.977
614.5000	-0.124943	-0.000259245	0.0893442	303.133
614.0000	-0.206514	-0.000260258	0.0897666	303.285
613.5000	-0.0757756	-0.000248134	0.0903245	303.428
613.0000	-0.119213	-0.000232624	0.0908216	303.581
612.5000	-0.128379	-0.000220677	0.091525	303.744
612.0000	0.0481719	-0.000207441	0.092406	303.913
611.5000	0.0439526	-0.000206314	0.093346	304.058
611.0000	-0.0517087	-0.000206028	0.0938165	304.207
610.5000	0.136864	-0.000214531	0.0941367	304.349
610.0000	0.259975	-0.000228392	0.0942804	304.481
609.5000	0.208568	-0.000240739	0.095184	304.625
609.0000	0.196116	-0.000237746	0.0959793	304.754
608.5000	0.278849	-0.000242624	0.0972135	304.89
608.0000	0.150423	-0.000228872	0.0979326	305.008
607.5000	0.117705	-0.000243849	0.0982457	305.126
607.0000	0.0781156	-0.000247927	0.0990103	305.252
606.5000	-0.149135	-0.000251516	0.0999071	305.377
606.0000	-0.245394	-0.000234018	0.10145	305.498
605.5000	-0.599204	-0.000241101	0.102708	305.62
605.0000	-0.54816	-0.000245519	0.104283	305.739
604.5000	-0.312559	-0.000252204	0.105542	305.849
604.0000	-0.582872	-0.000263399	0.106893	305.941
603.5000	-0.832894	-0.000270425	0.108451	306.036
603.0000	-0.63301	-0.000270534	0.109448	306.117
602.5000	-0.476291	-0.000287684	0.111058	306.21
602.0000	-0.058998	-0.00028134	0.112693	306.289
601.5000	-0.0211706	-0.00026966	0.11435	306.382
601.0000	-0.0571514	-0.000266243	0.115979	306.473
600.5000	0.023843	-0.000255365	0.118129	306.56
600.0000	0.0309142	-0.000268458	0.119855	306.63
599.5000	-0.0681106	-0.000253319	0.122347	306.689
599.0000	0.0884813	-0.000232397	0.12448	306.747
598.5000	0.163645	-0.000218318	0.127004	306.785
598.0000	0.499803	-0.000232332	0.129256	306.837
597.5000	0.449291	-0.00023291	0.131187	306.875
597.0000	0.689668	-0.000239017	0.133421	306.914
596.5000	0.630984	-0.000242035	0.135646	306.927
596.0000	0.600633	-0.000221594	0.138175	306.964
595.5000	0.750213	-0.000236398	0.140672	307.013
595.0000	0.932904	-0.000225554	0.143245	307.031
594.5000	1.03163	-0.000212851	0.145914	307.058
594.0000	0.900647	-0.000192764	0.148043	307.086
593.5000	0.758315	-0.000185219	0.150707	307.109
593.0000	0.880195	-0.000180502	0.15387	307.149
592.5000	1.31843	-0.00015782	0.156538	307.207
592.0000	1.50135	-0.00013941	0.159244	307.292
591.5000	1.55846	-0.000132154	0.161539	307.365
591.0000	1.59289	-0.000110072	0.164549	307.463
590.5000	1.62624	-0.000128883	0.16732	307.579
590.0000	1.65047	-0.000113614	0.170312	307.707
589.5000	1.86296	-8.9453E-005	0.173544	307.844
589.0000	1.91647	-7.33772E-005	0.176799	307.987
588.5000	1.94019	-5.24997E-005	0.180106	308.16
588.0000	2.15935	-3.72456E-005	0.183821	308.359
587.5000	2.29584	-2.01041E-005	0.1876	308.579
587.0000	2.47818	-4.95217E-006	0.191595	308.857
586.5000	2.31601	4.62396E-006	0.195401	309.125
586.0000	2.41958	2.86013E-005	0.199805	309.401
585.5000	2.76639	4.62526E-005	0.203866	309.697
585.0000	3.03388	7.29347E-005	0.207911	310.007
584.5000	3.53556	0.000101817	0.211877	310.311
584.0000	3.74018	0.00012171	0.216487	310.653
583.5000	4.25044	0.000153452	0.22138	311.021
583.0000	4.36887	0.000168406	0.226896	311.427
582.5000	4.87987	0.000201271	0.232234	311.857
582.0000	5.16263	0.000249151	0.237628	312.288
581.5000	5.61237	0.00030138	0.243475	312.769
581.0000	6.15087	0.000335896	0.2497	313.262
580.5000	6.88515	0.000385675	0.256102	313.779
580.0000	7.37477	0.000420341	0.26221	314.287
579.5000	7.85838	0.000477327	0.268424	314.821
579.0000	8.4823	0.000531864	0.274667	315.346
578.5000	9.26721	0.000588645	0.281598	315.899
578.0000	10.245	0.000643697	0.2886	316.49
577.5000	10.7763	0.000689487	0.295615	317.141
577.0000	11.4166	0.000760482	0.303272	317.768
576.5000	12.3057	0.000814868	0.311768	318.474
576.0000	12.7546	0.000869435	0.319941	319.155
575.5000	13.4167	0.000921062	0.328791	319.889
575.0000	14.1379	0.000979188	0.336651	320.584
574.5000	15.0991	0.00103757	0.345518	321.348
574.0000	15.9879	0.00108083	0.354608	322.107
573.5000	17.0562	0.00113448	0.363767	322.885
573.0000	17.998	0.00119017	0.373042	323.724
572.5000	18.8352	0.00124737	0.381766	324.518
572.0000	19.852	0.00129873	0.391708	325.441
571.5000	20.7965	0.00133851	0.401648	326.343
571.0000	21.8145	0.00138644	0.412665	327.296
570.5000	22.9631	0.00143111	0.423555	328.293
570.0000	23.9173	0.00148591	0.433986	329.258
569.5000	24.7666	0.00152796	0.445531	330.275
569.0000	25.6847	0.00159293	0.457053	331.286
568.5000	26.5901	0.0016366	0.467581	332.266
568.0000	27.5283	0.0016593	0.478176	333.283
567.5000	28.5584	0.00171475	0.488902	334.307
567.0000	29.4576	0.0017502	0.499592	335.292
566.5000	30.3144	0.00176027	0.509954	336.227
566.0000	31.2306	0.00180189	0.520184	337.149
565.5000	31.9463	0.0018281	0.529909	338.057
565.0000	32.4432	0.00185334	0.539568	338.925
564.5000	32.9765	0.00187166	0.549249	339.79
564.0000	33.457	0.00189377	0.558417	340.575
563.5000	33.4969	0.00188621	0.566748	341.309
563.0000	34.1189	0.00189593	0.574925	342.057
562.5000	34.3476	0.00189634	0.582417	342.714
562.0000	34.6841	0.00190732	0.589661	343.342
561.5000	34.6219	0.00188263	0.597502	343.98
561.0000	34.8492	0.00186407	0.604529	344.577
560.5000	34.8053	0.00184907	0.610914	345.119
560.0000	34.8467	0.00182431	0.617189	345.621
559.5000	34.7874	0.00180028	0.623152	346.046
559.0000	34.0967	0.00175344	0.628019	346.381
558.5000	33.8342	0.00169206	0.632033	346.665
558.0000	33.3759	0.0016354	0.635448	346.898
557.5000	32.9078	0.00158509	0.638714	347.08
557.0000	32.2211	0.00152687	0.641683	347.217
556.5000	31.621	0.0014558	0.643785	347.313
556.0000	31.1157	0.00140597	0.644749	347.343
555.5000	30.397	0.00133227	0.645723	347.338
555.0000	30.1216	0.00127415	0.646329	347.274
554.5000	29.1782	0.00121101	0.647035	347.179
554.0000	28.4378	0.00113506	0.646613	347.026
553.5000	27.8275	0.00108352	0.645837	346.834
553.0000	27.1695	0.00101985	0.644716	346.616
552.5000	26.4788	0.000964037	0.643949	346.382
552.0000	25.9214	0.000893782	0.642751	346.098
551.5000	25.2713	0.000819709	0.641296	345.8
551.0000	24.8835	0.000767362	0.639364	345.495
550.5000	24.8505	0.000744374	0.637372	345.168
550.0000	24.3752	0.000736774	0.63543	344.817
549.5000	23.9127	0.000718918	0.633675	344.467
549.0000	23.7593	0.000676711	0.631282	344.112
548.5000	23.8194	0.000680042	0.628993	343.781
548.0000	23.863	0.000667696	0.627633	343.422
547.5000	23.7936	0.000665983	0.62637	343.099
547.0000	23.6431	0.000659763	0.625049	342.748
546.5000	23.6571	0.000652005	0.623597	342.449
546.0000	23.8084	0.000667929	0.621682	342.175
545.5000	23.7132	0.000664778	0.620875	341.904
545.0000	23.9705	0.00066647	0.620205	341.696
544.5000	23.9648	0.000678332	0.619458	341.468
544.0000	24.3116	0.000707226	0.618602	341.276
543.5000	24.2327	0.000732707	0.618141	341.112
543.0000	24.4348	0.000773569	0.618041	340.969
542.5000	24.4441	0.000783476	0.618498	340.855
542.0000	24.5132	0.000787872	0.618867	340.766
541.5000	24.726	0.000770628	0.619523	340.728
541.0000	24.9164	0.000807383	0.619998	340.693
540.5000	24.9331	0.000838326	0.62129	340.669
540.0000	25.417	0.000857925	0.622933	340.666
539.5000	25.6339	0.000860893	0.624516	340.709
539.0000	25.8042	0.00089953	0.626223	340.802
538.5000	26.0174	0.000921456	0.628399	340.924
538.0000	26.4576	0.000938639	0.631012	341.047
537.5000	26.6947	0.000934039	0.633816	341.201
537.0000	26.9104	0.000952617	0.636607	341.377
536.5000	27.1379	0.000986132	0.639687	341.568
536.0000	27.8154	0.00101675	0.643405	341.807
535.5000	28.6076	0.00104587	0.647195	342.063
535.0000	29.13	0.00107487	0.651584	342.363
534.5000	29.4669	0.00109429	0.655641	342.641
534.0000	29.8135	0.00111402	0.659942	342.949
533.5000	30.5767	0.0011588	0.66419	343.273
533.0000	30.737	0.00115493	0.668313	343.596
532.5000	30.9977	0.0011548	0.672801	343.964
532.0000	31.0706	0.00116733	0.677637	344.355
531.5000	31.5228	0.00117636	0.68278	344.764
531.0000	31.5763	0.00119016	0.688536	345.173
530.5000	31.9076	0.00115899	0.693886	345.582
530.0000	32.1407	0.0011563	0.699248	346.01
529.5000	32.3699	0.00117955	0.704644	346.443
529.0000	32.4592	0.00118067	0.709952	346.837
528.5000	32.4749	0.00117925	0.715084	347.236
528.0000	32.5021	0.0011593	0.720087	347.625
527.5000	32.3817	0.00111554	0.725263	348.005
527.0000	32.3624	0.00109407	0.730815	348.412
526.5000	31.5514	0.00103874	0.735678	348.783
526.0000	31.3016	0.00101976	0.741036	349.173
525.5000	30.672	0.000964698	0.746285	349.55
525.0000	30.236	0.000936278	0.751392	349.918
524.5000	29.6623	0.000874812	0.756216	350.243
524.0000	29.4161	0.000825198	0.760673	350.536
523.5000	29.0574	0.000785564	0.764843	350.833
523.0000	28.2539	0.000700848	0.768716	351.098
522.5000	27.9272	0.00068339	0.772156	351.346
522.0000	27.215	0.000632935	0.775899	351.596
521.5000	26.5078	0.000567504	0.779764	351.836
521.0000	25.5565	0.000473319	0.783153	352.046
520.5000	25.2036	0.000407005	0.786459	352.248
520.0000	24.6388	0.000320553	0.789402	352.423
519.5000	23.7706	0.00023981	0.792484	352.584
519.0000	22.6482	0.000188238	0.795265	352.741
518.5000	22.0988	0.000135247	0.797662	352.891
518.0000	21.4167	4.29207E-005	0.800349	353.036
517.5000	20.925	-2.50271E-005	0.803104	353.179
517.0000	20.3655	-9.15054E-005	0.806001	353.313
516.5000	19.5572	-0.0001564	0.808869	353.44
516.0000	19.2765	-0.000206389	0.811498	353.565
515.5000	18.4877	-0.000278972	0.81382	353.706
515.0000	17.6727	-0.000344687	0.816045	353.827
514.5000	16.9649	-0.000401197	0.818213	353.955
514.0000	16.3904	-0.000454279	0.82028	354.063
513.5000	15.865	-0.000513542	0.822365	354.164
513.0000	15.0998	-0.000553176	0.824245	354.281
512.5000	14.6722	-0.000599889	0.826632	354.426
512.0000	14.0818	-0.000609307	0.828892	354.551
511.5000	13.4863	-0.00065041	0.830806	354.678
511.0000	13.0319	-0.00069439	0.832869	354.804
510.5000	12.6025	-0.000755826	0.834987	354.908
510.0000	12.249	-0.000759239	0.837191	355.025
509.5000	11.6129	-0.000781147	0.839106	355.128
509.0000	11.4266	-0.000823879	0.840784	355.218
508.5000	11.0539	-0.000854972	0.842303	355.28
508.0000	10.6444	-0.000870394	0.844081	355.336
507.5000	10.2615	-0.000891998	0.845701	355.366
507.0000	9.97415	-0.00091483	0.847554	355.415
506.5000	9.57811	-0.0009457	0.849374	355.465
506.0000	9.15438	-0.000992399	0.85067	355.502
505.5000	8.53484	-0.00103374	0.851964	355.538
505.0000	8.10575	-0.00109637	0.853297	355.569
504.5000	7.83312	-0.00113067	0.85457	355.58
504.0000	7.40091	-0.00117904	0.855425	355.552
503.5000	7.01434	-0.00122421	0.856217	355.523
503.0000	6.97891	-0.00126787	0.856874	355.462
502.5000	6.67861	-0.00129125	0.857165	355.382
502.0000	6.21628	-0.00132285	0.85732	355.294
501.5000	5.53455	-0.00141044	0.857331	355.171
501.0000	5.39529	-0.00144272	0.857181	355.018
500.5000	4.43999	-0.00150148	0.857037	354.839
500.0000	4.05971	-0.00155023	0.856686	354.621
499.5000	3.45119	-0.0016076	0.855517	354.34
499.0000	2.77543	-0.00168023	0.853976	353.947
498.5000	2.20015	-0.00174596	0.852023	353.427
498.0000	1.7526	-0.0017862	0.849738	352.781
497.5000	1.15816	-0.00185112	0.847621	351.988
497.0000	0.987407	-0.00187763	0.846029	351.154
496.5000	0.212798	-0.00190421	0.844674	350.275
496.0000	-0.328008	-0.00195054	0.844534	349.582
495.5000	-1.02871	-0.00198143	0.844503	349.034
495.0000	-1.80148	-0.00204669	0.84364	348.618
494.5000	-2.44073	-0.00210611	0.842108	348.24
494.0000	-2.94713	-0.0021475	0.840237	347.871
493.5000	-3.64651	-0.00216954	0.838197	347.484
493.0000	-4.31484	-0.00222948	0.836332	347.129
492.5000	-4.97988	-0.0022721	0.834442	346.773
492.0000	-5.54417	-0.00233935	0.832192	346.394
491.5000	-6.38255	-0.00239002	0.829902	346.057
491.0000	-7.24918	-0.0024548	0.827819	345.741
490.5000	-7.89426	-0.00249285	0.825794	345.471
490.0000	-8.40438	-0.00254894	0.823761	345.251
489.5000	-9.00453	-0.00260296	0.821563	345.076
489.0000	-9.32885	-0.00264524	0.81895	344.886
488.5000	-9.64231	-0.0026643	0.815816	344.658
488.0000	-10.1692	-0.00273609	0.811638	344.247
487.5000	-10.8769	-0.00280389	0.806813	343.606
487.0000	-11.2557	-0.0028596	0.80292	342.866
486.5000	-11.6074	-0.00290808	0.798891	341.991
486.0000	-12.0219	-0.00292714	0.795193	341.102
485.5000	-12.6675	-0.00298552	0.79257	340.212
485.0000	-12.6612	-0.00302978	0.790794	339.412
484.5000	-12.955	-0.00305563	0.788699	338.761
484.0000	-13.2471	-0.00307264	0.785967	338.179
483.5000	-13.2633	-0.00310861	0.783255	337.686
483.0000	-13.6095	-0.00313089	0.779981	337.218
482.5000	-13.4198	-0.0031625	0.776603	336.826
482.0000	-13.7045	-0.00314991	0.772952	336.464
481.5000	-14.1082	-0.00317572	0.76927	336.098
481.0000	-14.4811	-0.00321752	0.765923	335.773
480.5000	-14.8226	-0.00323178	0.762427	335.478
480.0000	-15.1719	-0.00326768	0.758563	335.187
479.5000	-15.4154	-0.00325914	0.754479	334.883
479.0000	-15.5008	-0.0032734	0.749009	334.468
478.5000	-15.6591	-0.00329367	0.742893	333.806
478.0000	-15.8238	-0.00329668	0.737753	332.896
477.5000	-15.9721	-0.00329587	0.735455	332.115
477.0000	-15.9559	-0.00329861	0.733552	331.555
476.5000	-16.0213	-0.00330117	0.728548	330.945
476.0000	-16.0107	-0.00331801	0.722139	330.133
475.5000	-16.1539	-0.00332792	0.715442	329.093
475.0000	-16.3212	-0.00333611	0.708887	327.863
474.5000	-16.2573	-0.00333495	0.703171	326.542
474.0000	-16.2129	-0.00334125	0.697916	325.095
473.5000	-15.9146	-0.00335061	0.692054	323.419
473.0000	-15.9461	-0.00333121	0.686347	321.607
472.5000	-15.8613	-0.00331474	0.681604	319.675
472.0000	-15.9281	-0.00331341	0.679313	318.065
471.5000	-15.7012	-0.00332068	0.677693	316.787
471.0000	-15.5686	-0.00332502	0.676213	316.025
470.5000	-15.3781	-0.00329369	0.674508	315.535
470.0000	-15.3259	-0.00329094	0.672383	315.372
469.5000	-15.1181	-0.00328465	0.668001	315.28
469.0000	-15.0939	-0.00328281	0.659413	314.815
468.5000	-14.9443	-0.00328705	0.650713	313.946
468.0000	-15.015	-0.00328007	0.644442	312.992
467.5000	-14.9887	-0.00326241	0.640039	312.19
467.0000	-14.5694	-0.00323886	0.636783	311.596
466.5000	-14.4171	-0.00322566	0.634075	311.217
466.0000	-14.2798	-0.00320103	0.630575	311.021
465.5000	-13.9758	-0.00317379	0.626704	311.034
465.0000	-13.788	-0.00315305	0.622406	311.306
464.5000	-13.6196	-0.00311507	0.616781	311.746
464.0000	-13.5824	-0.00311233	0.608792	312.031
463.5000	-13.2835	-0.00307879	0.599293	311.969
463.0000	-13.0806	-0.00305729	0.590139	311.582
462.5000	-12.8503	-0.00302904	0.582617	311.04
462.0000	-12.9896	-0.00298038	0.576465	310.466
461.5000	-12.8394	-0.00294769	0.5708	309.963
461.0000	-12.4881	-0.00292422	0.565415	309.596
460.5000	-12.2016	-0.00289075	0.559726	309.352
460.0000	-11.8306	-0.00285266	0.554196	309.206
459.5000	-11.4548	-0.00282246	0.548275	309.114
459.0000	-11.2772	-0.00279124	0.54113	308.949
458.5000	-11.2165	-0.00275983	0.533551	308.701
458.0000	-11.1387	-0.00272874	0.525429	308.295
457.5000	-10.9728	-0.00270205	0.517175	307.674
457.0000	-10.7965	-0.00266561	0.509254	306.857
456.5000	-10.5926	-0.00262761	0.503066	306.085
456.0000	-10.2958	-0.00259268	0.496583	305.397
455.5000	-9.9616	-0.00256061	0.488057	304.541
455.0000	-9.74185	-0.00251984	0.480021	303.552
454.5000	-9.59407	-0.00249559	0.474091	302.631
454.0000	-9.3384	-0.0024466	0.469136	301.973
453.5000	-8.77889	-0.00239109	0.46287	301.492
453.0000	-8.53	-0.00234908	0.455939	301.017
452.5000	-8.38828	-0.00230764	0.449134	300.51
452.0000	-8.23115	-0.00225341	0.442585	299.967
451.5000	-8.03257	-0.00220324	0.435711	299.398
451.0000	-7.83865	-0.0021542	0.429019	298.837
450.5000	-7.73267	-0.00210109	0.422211	298.25
450.0000	-7.49657	-0.00205903	0.416136	297.683
449.5000	-7.29915	-0.00201315	0.410896	297.228
449.0000	-7.09055	-0.00197964	0.406163	296.943
448.5000	-7.07338	-0.00193802	0.39998	296.669
448.0000	-6.78358	-0.00188663	0.393214	296.28
447.5000	-6.5352	-0.00184464	0.387864	295.894
447.0000	-6.44023	-0.00179594	0.384396	295.745
446.5000	-6.14805	-0.00173978	0.380266	295.755
446.0000	-6.0877	-0.00170634	0.373246	295.624
445.5000	-5.90333	-0.0016812	0.365767	295.182
445.0000	-5.76222	-0.00164089	0.359609	294.593
444.5000	-5.76069	-0.00161131	0.353943	293.974
444.0000	-5.28713	-0.00158058	0.348432	293.343
443.5000	-5.12255	-0.00155362	0.342796	292.633
443.0000	-5.10836	-0.00151376	0.33812	292
442.5000	-4.96055	-0.00148501	0.333781	291.406
442.0000	-4.75996	-0.00144922	0.329734	290.912
441.5000	-4.4835	-0.00140754	0.325156	290.4
441.0000	-4.47202	-0.0013761	0.320722	289.919
440.5000	-4.62282	-0.0013501	0.316423	289.453
440.0000	-4.5045	-0.00132729	0.311979	288.979
439.5000	-4.21149	-0.00129941	0.30723	288.484
439.0000	-4.03598	-0.00126008	0.30225	287.975
438.5000	-3.67944	-0.0012123	0.296918	287.454
438.0000	-3.48892	-0.00116262	0.291622	286.957
437.5000	-3.22137	-0.00112277	0.286638	286.479
437.0000	-2.83654	-0.00107752	0.281259	285.984
436.5000	-2.70217	-0.00104105	0.27712	285.569
436.0000	-2.47666	-0.000994119	0.273312	285.201
435.5000	-2.46195	-0.000956659	0.268976	284.849
435.0000	-2.33025	-0.000915974	0.264585	284.53
434.5000	-2.15184	-0.000879151	0.260018	284.196
434.0000	-2.10934	-0.00085387	0.255441	283.829
433.5000	-2.0568	-0.00082637	0.251218	283.466
433.0000	-1.87832	-0.000794664	0.247243	283.074
432.5000	-1.64607	-0.000755218	0.243507	282.698
432.0000	-1.4354	-0.000715353	0.239274	282.283
431.5000	-1.29544	-0.000691153	0.235247	281.876
431.0000	-1.2944	-0.000659565	0.231331	281.466
430.5000	-1.30554	-0.000636125	0.227696	281.07
430.0000	-1.28592	-0.000618453	0.2243	280.683
429.5000	-1.32106	-0.000597492	0.220598	280.272
429.0000	-1.3559	-0.000576891	0.217042	279.87
428.5000	-1.38085	-0.000549116	0.213502	279.477
428.0000	-1.28165	-0.000515853	0.209494	279.068
427.5000	-1.34092	-0.000504486	0.206157	278.699
427.0000	-1.30992	-0.000474499	0.203138	278.348
426.5000	-1.32784	-0.000455281	0.199983	277.977
426.0000	-1.33765	-0.000429238	0.196855	277.588
425.5000	-1.12104	-0.000415967	0.193865	277.173
425.0000	-1.11631	-0.000394594	0.190666	276.732
424.5000	-0.917052	-0.000376079	0.187519	276.262
424.0000	-0.809688	-0.000358898	0.184623	275.798
423.5000	-0.87803	-0.000347463	0.182376	275.395
423.0000	-0.846164	-0.00032025	0.179974	275.043
422.5000	-0.881282	-0.000315055	0.177366	274.73
422.0000	-0.885485	-0.000295165	0.174702	274.442
421.5000	-0.63922	-0.000269466	0.172199	274.176
421.0000	-0.352518	-0.000249668	0.169948	273.929
420.5000	-0.210002	-0.000245807	0.167618	273.679
420.0000	-0.360539	-0.000242668	0.165484	273.431
419.5000	-0.350486	-0.000226708	0.163177	273.149
419.0000	-0.24166	-0.000221556	0.161076	272.897
418.5000	-0.0821231	-0.00020912	0.15889	272.672
418.0000	0.020794	-0.000196223	0.157032	272.455
417.5000	0.0560368	-0.000170422	0.155024	272.243
417.0000	0.0599221	-0.000158588	0.153386	272.05
416.5000	0.139403	-0.000145258	0.151901	271.906
416.0000	0.0945176	-0.000136639	0.150367	271.82
415.5000	0.29003	-0.000115464	0.148664	271.734
415.0000	0.223343	-0.000105694	0.146687	271.588
414.5000	0.317065	-8.84391E-005	0.145169	271.409
414.0000	0.279594	-7.32091E-005	0.144011	271.221
413.5000	0.248006	-5.96991E-005	0.143004	271.027
413.0000	0.103697	-4.66579E-005	0.141994	270.847
412.5000	0.0547264	-2.50628E-005	0.140892	270.683
412.0000	0.100538	-1.31379E-005	0.139984	270.545
411.5000	0.29924	9.54763E-006	0.138715	270.398
411.0000	0.325517	2.60547E-005	0.137643	270.273
410.5000	0.318296	4.67459E-005	0.136735	270.154
410.0000	0.306298	4.78839E-005	0.136019	270.053
409.5000	0.160833	5.05964E-005	0.135333	269.966
409.0000	0.11804	5.19684E-005	0.1348	269.911
408.5000	0.171294	6.46546E-005	0.134073	269.865
408.0000	0.123727	7.66734E-005	0.133214	269.823
407.5000	0.216628	9.50186E-005	0.132139	269.755
407.0000	0.183335	8.69821E-005	0.13124	269.676
406.5000	0.1665	8.68637E-005	0.130725	269.617
406.0000	0.200899	9.8457E-005	0.130018	269.536
405.5000	0.254131	0.000109324	0.129133	269.445
405.0000	0.253703	0.000106751	0.128268	269.335
404.5000	0.240451	0.00011826	0.127579	269.219
404.0000	0.101937	0.000114748	0.127174	269.074
403.5000	0.0266919	0.000130063	0.12683	268.91
403.0000	-0.0792171	0.000120583	0.126823	268.733
402.5000	0.0880083	0.000130216	0.126512	268.544
402.0000	0.0684767	0.000136603	0.126563	268.359
401.5000	0.193775	0.000146829	0.126902	268.169
401.0000	0.20566	0.000141176	0.126801	267.98
400.5000	0.133791	0.000153445	0.126727	267.805
400.0000	0.171289	0.000165948	0.126544	267.654
399.5000	0.211348	0.00015443	0.127248	267.543
399.0000	0.154042	0.000168192	0.127728	267.447
398.5000	0.205104	0.000178846	0.127927	267.36
398.0000	0.293552	0.000184962	0.128165	267.301
397.5000	0.20489	0.00017839	0.128352	267.263
397.0000	0.290575	0.000175725	0.128868	267.25
396.5000	0.300154	0.00017595	0.129295	267.277
396.0000	0.296637	0.000169321	0.129752	267.324
395.5000	0.333791	0.000167134	0.129779	267.391
395.0000	0.408996	0.000174238	0.129924	267.484
394.5000	0.540447	0.000180294	0.130359	267.616
394.0000	0.386282	0.000181987	0.130777	267.769
393.5000	0.378013	0.000183962	0.130917	267.94
393.0000	0.306556	0.000174687	0.130789	268.114
392.5000	0.55114	0.000185172	0.13113	268.305
392.0000	0.435325	0.000183111	0.131675	268.478
391.5000	0.362622	0.00019742	0.132308	268.625
391.0000	0.430552	0.000195343	0.132768	268.758
390.5000	0.420835	0.000199015	0.133107	268.892
390.0000	0.283911	0.000206554	0.133431	269.014
389.5000	0.405093	0.000216305	0.134014	269.121
389.0000	0.486935	0.000206768	0.134622	269.208
388.5000	0.4213	0.000211551	0.135077	269.298
388.0000	0.586618	0.000219509	0.135437	269.386
387.5000	0.627365	0.000224597	0.136157	269.475
387.0000	0.495502	0.000222042	0.137331	269.559
386.5000	0.473131	0.000219842	0.13831	269.636
386.0000	0.325156	0.000216919	0.139308	269.699
385.5000	0.294515	0.000210477	0.140294	269.756
385.0000	0.299486	0.000206948	0.14132	269.811
384.5000	0.258766	0.000212439	0.142375	269.867
384.0000	0.0861428	0.000215351	0.143466	269.914
383.5000	0.346091	0.0002224	0.14438	269.969
383.0000	0.470001	0.000211901	0.144997	270.01
382.5000	0.604141	0.000212177	0.145682	270.05
382.0000	0.703356	0.000217208	0.146842	270.093
381.5000	0.568948	0.000202816	0.148124	270.137
381.0000	0.539797	0.000225007	0.149286	270.198
380.5000	0.549582	0.000221629	0.150357	270.267
380.0000	0.49131	0.000227687	0.151712	270.34
379.5000	0.405321	0.000229297	0.153016	270.405
379.0000	0.408909	0.000219559	0.153852	270.461
378.5000	0.47897	0.00022439	0.154389	270.519
378.0000	0.528804	0.000220725	0.155064	270.584
377.5000	0.755616	0.000219385	0.155901	270.648
377.0000	0.899949	0.000235478	0.156538	270.696
376.5000	0.937714	0.000236683	0.157392	270.74
376.0000	0.952984	0.000230542	0.158092	270.764
375.5000	0.984398	0.000225877	0.158529	270.781
375.0000	0.815211	0.000222385	0.159162	270.807
374.5000	0.746099	0.000222209	0.159946	270.839
374.0000	0.59804	0.00022008	0.16069	270.864
373.5000	0.578927	0.000202858	0.161251	270.881
373.0000	0.656553	0.000188754	0.161572	270.897
372.5000	0.643352	0.00018367	0.16191	270.907
372.0000	0.764299	0.000171685	0.162356	270.92
371.5000	0.725844	0.00017003	0.162686	270.932
371.0000	0.672185	0.000158495	0.16323	270.948
370.5000	0.759667	0.000163602	0.163819	270.962
370.0000	0.816769	0.000165419	0.164425	270.992
369.5000	0.75463	0.000150756	0.164781	271.006
369.0000	0.761313	0.000148096	0.165372	271.042
368.5000	0.588022	0.00014013	0.166131	271.088
368.0000	0.529836	0.000124725	0.16677	271.148
367.5000	0.549823	0.000120308	0.167617	271.22
367.0000	0.786067	9.72057E-005	0.168611	271.291
366.5000	0.870311	8.74637E-005	0.169328	271.365
366.0000	0.752577	7.80499E-005	0.170043	271.451
365.5000	0.733158	8.81668E-005	0.170602	271.524
365.0000	0.83686	9.89415E-005	0.171151	271.608
364.5000	0.889742	9.90259E-005	0.171848	271.685
364.0000	0.998058	9.49528E-005	0.172338	271.761
363.5000	0.901696	9.65914E-005	0.173326	271.853
363.0000	1.11152	9.07088E-005	0.174385	271.956
362.5000	1.15912	8.8958E-005	0.175274	272.056
362.0000	1.22134	7.45288E-005	0.176004	272.145
361.5000	1.30723	7.48787E-005	0.176902	272.233
361.0000	1.26988	6.57398E-005	0.17767	272.312
360.5000	1.20721	6.3367E-005	0.178363	272.404
360.0000	1.30403	6.21601E-005	0.179161	272.496
359.5000	1.5535	6.39499E-005	0.179752	272.577
359.0000	1.45949	5.90977E-005	0.180119	272.659
358.5000	1.41924	6.87452E-005	0.180238	272.729
358.0000	1.43881	6.49136E-005	0.180389	272.799
357.5000	1.53169	7.02498E-005	0.180635	272.879
357.0000	1.55987	5.39498E-005	0.181121	272.957
356.5000	1.67459	4.49283E-005	0.181843	273.028
356.0000	1.72832	2.18552E-005	0.182266	273.104
355.5000	1.78265	2.36271E-005	0.182778	273.191
355.0000	1.93127	9.57674E-006	0.182978	273.26
354.5000	1.92611	8.97981E-006	0.183156	273.329
354.0000	1.84805	4.03164E-007	0.18355	273.407
353.5000	1.93134	-9.97909E-006	0.183992	273.489
353.0000	1.84617	-7.76553E-006	0.184256	273.562
352.5000	1.86807	-7.23218E-006	0.184757	273.655
352.0000	2.13288	-2.99899E-005	0.185225	273.743
351.5000	2.18933	-3.11826E-005	0.18556	273.817
351.0000	2.1607	-4.15275E-005	0.186357	273.901
350.5000	2.22414	-4.88663E-005	0.187219	273.982
350.0000	2.21541	-5.59762E-005	0.188275	274.075
349.5000	2.26996	-8.04597E-005	0.189406	274.168
349.0000	2.27868	-0.000103802	0.190659	274.264
348.5000	2.28491	-0.000115689	0.191918	274.354
348.0000	2.22609	-0.000124412	0.192967	274.447
347.5000	2.12551	-0.000131173	0.194305	274.541
347.0000	2.08495	-0.000150021	0.195608	274.629
346.5000	2.03673	-0.0001497	0.196585	274.705
346.0000	1.91082	-0.000159144	0.197522	274.785
345.5000	1.86414	-0.000178368	0.198687	274.869
345.0000	1.81545	-0.000188552	0.200033	274.967
344.5000	2.03933	-0.000213809	0.201319	275.058
344.0000	1.99725	-0.000232569	0.202695	275.141
343.5000	1.87606	-0.000255997	0.203755	275.219
343.0000	1.85773	-0.000271617	0.204571	275.286
342.5000	2.05401	-0.000285189	0.205379	275.364
342.0000	2.13449	-0.000305728	0.206291	275.455
341.5000	2.27451	-0.000328513	0.20734	275.549
341.0000	2.44882	-0.000329961	0.208394	275.625
340.5000	2.45963	-0.000347165	0.209209	275.705
340.0000	2.3647	-0.000361231	0.210105	275.795
339.5000	2.5317	-0.000379876	0.210736	275.884
339.0000	2.63013	-0.000408736	0.211698	275.978
338.5000	2.7117	-0.000424303	0.212799	276.078
338.0000	2.80991	-0.000437333	0.213855	276.179
337.5000	2.80606	-0.000449495	0.214772	276.275
337.0000	2.91149	-0.000462138	0.215469	276.361
336.5000	2.85439	-0.000480964	0.216467	276.455
336.0000	3.00787	-0.000507844	0.217518	276.565
335.5000	3.22079	-0.000520939	0.218525	276.671
335.0000	3.18431	-0.000540922	0.219581	276.78
334.5000	3.22656	-0.000564561	0.220651	276.901
334.0000	3.27497	-0.000597758	0.221812	277.017
333.5000	3.19088	-0.000619703	0.223355	277.138
333.0000	3.14559	-0.000641848	0.224546	277.257
332.5000	3.10394	-0.000657694	0.225474	277.379
332.0000	3.20941	-0.000675656	0.226472	277.501
331.5000	3.36969	-0.000696361	0.227741	277.628
331.0000	3.34495	-0.000712899	0.229133	277.762
330.5000	3.27165	-0.000731342	0.230156	277.883
330.0000	3.16759	-0.00077096	0.231272	278.004
329.5000	3.29602	-0.000797973	0.232552	278.141
329.0000	3.42005	-0.000852885	0.233723	278.278
328.5000	3.49602	-0.000874819	0.235046	278.416
328.0000	3.55637	-0.000900033	0.236048	278.536
327.5000	3.2737	-0.000926151	0.237226	278.654
327.0000	3.32823	-0.000945968	0.238543	278.761
326.5000	3.51559	-0.000963428	0.24013	278.889
326.0000	3.41916	-0.000988451	0.241862	279.028
325.5000	3.35973	-0.00100963	0.243321	279.163
325.0000	3.43744	-0.0010269	0.244622	279.314
324.5000	3.51111	-0.00106188	0.24612	279.469
324.0000	3.67879	-0.0011014	0.248111	279.651
323.5000	3.6771	-0.00113583	0.250079	279.822
323.0000	3.53226	-0.00117265	0.251781	279.993
322.5000	3.547	-0.00120086	0.253399	280.16
322.0000	3.62274	-0.00121825	0.255003	280.339
321.5000	3.71575	-0.00124007	0.256919	280.524
321.0000	3.60688	-0.00127737	0.258877	280.71
320.5000	3.81994	-0.0013005	0.261031	280.907
320.0000	3.78362	-0.00131863	0.262804	281.085
319.5000	3.80093	-0.00134707	0.264647	281.269
319.0000	3.96892	-0.0013577	0.266401	281.469
318.5000	3.90651	-0.00139829	0.268195	281.682
318.0000	3.88247	-0.00143789	0.269932	281.884
317.5000	3.95256	-0.00146349	0.271625	282.064
317.0000	3.86029	-0.00149965	0.273674	282.249
316.5000	3.83081	-0.00150897	0.275699	282.418
316.0000	3.93883	-0.00152936	0.277844	282.602
315.5000	3.8628	-0.00155361	0.279586	282.781
315.0000	3.91478	-0.00156959	0.281574	282.995
314.5000	3.87766	-0.00159315	0.283512	283.204
314.0000	4.0015	-0.00160913	0.285638	283.421
313.5000	4.03201	-0.00164162	0.287868	283.644
313.0000	4.2624	-0.00164969	0.290125	283.88
312.5000	4.37838	-0.00166153	0.292274	284.117
312.0000	4.3841	-0.00168376	0.294622	284.355
311.5000	4.48937	-0.00169887	0.297005	284.607
311.0000	4.43087	-0.00173665	0.299665	284.863
310.5000	4.48811	-0.00175562	0.302276	285.155
310.0000	4.50284	-0.0017545	0.30492	285.43
309.5000	4.49331	-0.00176872	0.307825	285.725
309.0000	4.60655	-0.0017868	0.311	286.053
308.5000	4.62838	-0.00180726	0.314177	286.41
308.0000	4.65435	-0.00183355	0.317057	286.735
307.5000	4.49017	-0.00186938	0.320637	287.119
307.0000	4.64796	-0.00188893	0.324116	287.473
306.5000	4.76787	-0.00190479	0.327978	287.865
306.0000	4.95744	-0.00193331	0.331896	288.249
305.5000	4.86982	-0.00196877	0.335997	288.679
305.0000	4.8091	-0.00199939	0.340111	289.099
304.5000	4.62826	-0.00202438	0.344926	289.571
304.0000	4.67186	-0.00205015	0.350093	290.069
303.5000	4.46019	-0.00208276	0.355311	290.573
303.0000	4.35644	-0.00211421	0.360895	291.135
302.5000	4.45137	-0.00213534	0.366749	291.729
302.0000	4.56969	-0.00216568	0.372906	292.334
301.5000	4.44424	-0.00220125	0.379357	292.964
301.0000	4.61047	-0.00222945	0.3857	293.606
300.5000	4.54187	-0.00224327	0.391442	294.191
300.0000	4.64147	-0.00227008	0.398626	294.889
299.5000	4.67451	-0.00230095	0.405509	295.571
299.0000	5.00759	-0.00230895	0.412226	296.252
298.5000	4.77721	-0.00233369	0.41921	296.971
298.0000	5.05234	-0.00235405	0.425921	297.654
297.5000	5.20874	-0.00235656	0.432945	298.363
297.0000	5.41142	-0.00234862	0.439472	298.981
296.5000	5.40911	-0.00234371	0.445936	299.612
296.0000	5.49406	-0.00234564	0.452196	300.229
295.5000	5.53946	-0.00232173	0.458562	300.829
295.0000	5.75273	-0.00230042	0.464401	301.363
294.5000	6.05495	-0.00227119	0.470311	301.916
294.0000	5.87096	-0.00223616	0.476182	302.509
293.5000	5.93502	-0.0022046	0.480993	303.013
293.0000	5.92058	-0.00215919	0.486228	303.551
292.5000	5.99429	-0.00213197	0.491403	304.106
292.0000	5.85044	-0.0020762	0.496034	304.619
291.5000	5.84502	-0.00202725	0.500574	305.112
291.0000	5.81793	-0.00196831	0.505151	305.606
290.5000	5.58459	-0.00191753	0.509866	306.108
290.0000	5.50398	-0.00184432	0.514566	306.589
289.5000	5.22098	-0.00177142	0.518732	307.048
289.0000	5.07543	-0.0017016	0.522886	307.511
288.5000	4.85963	-0.00165623	0.527461	308.029
288.0000	4.80576	-0.0015758	0.5317	308.519
287.5000	4.83189	-0.0015086	0.53615	309.041
287.0000	4.55593	-0.00145979	0.540673	309.612
286.5000	4.45741	-0.00136883	0.544917	310.176
286.0000	4.34029	-0.00131649	0.549263	310.714
285.5000	4.32029	-0.00123953	0.553946	311.235
285.0000	4.09749	-0.00116643	0.558835	311.782
284.5000	3.88487	-0.00109863	0.56321	312.28
284.0000	3.91413	-0.00102096	0.568073	312.827
283.5000	3.77569	-0.000962436	0.573232	313.391
283.0000	3.43934	-0.000910068	0.578211	313.942
282.5000	3.19177	-0.000828563	0.583622	314.536
282.0000	2.89657	-0.0007395	0.588852	315.145
281.5000	2.70485	-0.000697328	0.593859	315.735
281.0000	2.49744	-0.000629888	0.59924	316.344
280.5000	2.34875	-0.000562919	0.604963	317.013
280.0000	2.15234	-0.000482692	0.61093	317.704
279.5000	1.77404	-0.000426569	0.617047	318.422
279.0000	1.52388	-0.000354728	0.623046	319.138
278.5000	1.42604	-0.000284976	0.629724	319.919
278.0000	0.823646	-0.0002385	0.637445	320.769
277.5000	0.800857	-0.000149352	0.644787	321.58
277.0000	0.426777	-8.87682E-005	0.65253	322.465
276.5000	0.405354	-1.11339E-005	0.660536	323.393
276.0000	0.262599	6.95576E-005	0.668091	324.262
275.5000	0.123033	0.000138269	0.676992	325.256
275.0000	0.0525859	0.000208423	0.68633	326.304
274.5000	0.00377617	0.000290748	0.695902	327.401
274.0000	-0.364123	0.000346665	0.706329	328.625
273.5000	-0.583507	0.00040702	0.716563	329.79
273.0000	-0.867609	0.000493312	0.727948	331.081
272.5000	-0.967174	0.000561014	0.739813	332.438
272.0000	-1.49423	0.000635079	0.751914	333.843
271.5000	-1.53972	0.000709015	0.765333	335.402
271.0000	-1.87931	0.000773081	0.779011	336.958
270.5000	-1.77361	0.000844447	0.793301	338.571
270.0000	-1.67225	0.000893044	0.80809	340.28
269.5000	-1.73133	0.000954287	0.82314	342.062
269.0000	-1.95419	0.0010127	0.838335	343.85
268.5000	-2.10107	0.00105973	0.855107	345.815
268.0000	-2.31621	0.00110321	0.872852	347.888
267.5000	-2.62579	0.00113022	0.891353	350.064
267.0000	-2.68026	0.00117858	0.911372	352.464
266.5000	-2.47846	0.00122819	0.93197	354.967
266.0000	-2.11365	0.00130965	0.951434	357.292
265.5000	-1.74723	0.00136842	0.972772	359.821
265.0000	-1.33617	0.00142204	0.995251	362.548
264.5000	-1.00726	0.00142834	1.01688	365.213
264.0000	-0.739156	0.00145933	1.03862	367.911
263.5000	0.272328	0.00148669	1.06197	370.793
263.0000	0.75262	0.00148989	1.08332	373.447
262.5000	1.35695	0.00150858	1.10671	376.417
262.0000	2.17905	0.00150799	1.12887	379.294
261.5000	2.67381	0.00156023	1.15133	382.197
261.0000	3.22828	0.0015377	1.17328	384.995
260.5000	4.03098	0.00154753	1.19645	387.987
260.0000	4.93222	0.00157016	1.21979	391.037
259.5000	5.70866	0.00152694	1.24335	394.153
259.0000	6.34463	0.00152476	1.26704	397.334
258.5000	7.13818	0.00153224	1.29153	400.596
258.0000	7.71058	0.00149184	1.31674	403.969
257.5000	8.12063	0.00143179	1.34123	407.26
257.0000	9.20551	0.00141319	1.36781	410.854
256.5000	9.77221	0.00137516	1.39392	414.392
256.0000	11.1032	0.00136197	1.42271	418.287
255.5000	11.9984	0.0013546	1.45276	422.358
255.0000	13.3206	0.00135621	1.48382	426.603
254.5000	14.133	0.00129687	1.51448	430.819
254.0000	15.1797	0.00126846	1.54629	435.211
253.5000	16.8266	0.00128957	1.58323	440.278
253.0000	17.5384	0.00124199	1.6177	445.072
252.5000	18.8462	0.00125506	1.6702	452.494
252.0000	20.4552	0.00118337	1.71537	458.924
251.5000	22.313	0.0011259	1.75607	464.748
251.0000	23.8171	0.00111352	1.79841	470.81
250.5000	25.8442	0.000989057	1.84183	477.115
250.0000	27.2647	0.000963231	1.88395	483.311
249.5000	27.7083	0.00105309	1.92729	489.754
249.0000	29.8691	0.00108687	1.97444	496.823
248.5000	30.6422	0.00110018	2.02089	503.826
248.0000	31.9364	0.000960273	2.07115	511.495
247.5000	31.7987	0.00100342	2.1202	519.092
247.0000	31.411	0.000764809	2.17337	527.437
246.5000	31.6949	0.0007343	2.22865	536.192
246.0000	32.1352	0.000613461	2.28595	545.357
245.5000	32.3096	0.000476441	2.34757	555.42
245.0000	32.6019	0.000483146	2.41126	565.973
244.5000	34.2513	0.000132156	2.47731	577.072
244.0000	31.659	7.51486E-005	2.54548	588.742
243.5000	30.4533	0.000103812	2.61244	600.421
243.0000	29.3517	0.000207052	2.68147	612.704
242.5000	27.0152	-1.1659E-005	2.75991	626.938
242.0000	23.9732	-0.000100504	2.82976	639.857
241.5000	23.6971	-0.000528887	2.9085	654.706
241.0000	19.3214	-0.000708149	2.98116	668.685
240.5000	17.2529	-0.000640863	3.06231	684.703
240.0000	15.2077	-0.000783481	3.13637	699.63
239.5000	14.3747	-0.000966026	3.22267	717.411
239.0000	15.6994	-0.00094343	3.29712	733.065
238.5000	15.2252	-0.00107613	3.37442	749.693
238.0000	16.3746	-0.00124385	3.45368	767.216
237.5000	15.2427	-0.0011094	3.52331	783.008
237.0000	14.3779	-0.00102669	3.59406	799.426
236.5000	8.7986	-0.000931727	3.66112	815.377
236.0000	6.61755	-0.000892917	3.72147	830.058
235.5000	12.3493	-0.00101341	3.78617	846.274
235.0000	10.6101	-0.00123117	3.82708	856.79
234.5000	13.1969	-0.000940034	3.86765	867.431
234.0000	12.5418	-0.000699405	3.90725	878.049
233.5000	11.5054	-0.000588274	3.94744	889.072
233.0000	11.8013	-0.000528624	3.98472	899.641
232.5000	11.9888	-0.000657041	4.01533	908.726
232.0000	11.6556	-0.000559302	4.04464	917.943
231.5000	10.9469	-0.000529042	4.06417	924.539
231.0000	6.80791	-0.000576884	4.08133	930.845
230.5000	4.11528	-0.000172471	4.09363	936.103
230.0000	-0.31603	-0.000224966	4.10159	940.323
229.5000	-2.15928	0.000179771	4.10632	943.887
229.0000	-6.56079	0.000264867	4.10776	946.71
228.5000	-4.24289	0.000157359	4.10663	948.884
228.0000	-3.28228	-0.000146207	4.10376	950.539
227.5000	-2.63566	-0.000187417	4.09838	951.84
227.0000	-5.77861	-0.000201383	4.09157	952.818
226.5000	-8.66481	-0.000122422	4.08317	953.552
226.0000	-13.592	-0.000278448	4.07476	954.094
225.5000	-10.8531	-0.000119226	4.06493	954.486
225.0000	-9.0405	-0.000126798	4.05409	954.778
224.5000	-9.54025	-0.000211727	4.04246	954.948
224.0000	-11.4457	-0.000120473	4.03075	955.087
223.5000	-13.6832	-0.000170976	4.01938	955.24
223.0000	-11.6206	-0.00033546	4.00798	955.345
222.5000	-8.49026	-0.000245902	3.9938	955.459
222.0000	-6.85629	-0.000443602	3.98069	955.547
221.5000	-1.93918	-0.000195904	3.96691	955.648
221.0000	-2.10415	-0.000647745	3.95495	955.692
220.5000	-4.45488	-0.000696281	3.94295	955.756
220.0000	-6.57998	-0.000332165	3.93009	955.784

##### Extended Information
[Comments]
Sample name	JS187+JS190_5E-5_H2O_70-30_100EQDT+72H
Comment
User
Division
Company	Labo systeme complexes hors equilibre

[Detailed Information]
Creation date	1/26/2024 10:58 AM

Data array type	Linear data array * 4
Horizontal axis	Wavelength [nm]
Vertical axis(1)	CD [mdeg]
Vertical axis(2)	LD [dOD]
Vertical axis(3)	Abs
Vertical axis(4)	HT [V]
Start	700 nm
End	220 nm
Data interval	0.5 nm
Data points	961     

[Measurement Information]
Instrument name	CD Jasco
Model name	J-1500
Serial No.	A005261638

Detector	PM-539
Detector S/N	A0052PM539
  Lock-in amp.	X mode
  HT volt	Auto

Detector	EXPML-535
Detector S/N	A0001
  Lock-in amp.	X mode
  HT volt	Auto

Measurement date	1/26/2024 10:57 AM

Overload detect	1
Photometric mode	CD, LD, Abs, HT
Measure range	700 - 220 nm
Data pitch	0.5 nm
CD scale	200 mdeg/1.0 dOD
FL scale	200 mdeg/1.0 dOD
D.I.T.	1 sec
Bandwidth	1.00 nm
Start mode	Immediately
Scanning speed	500 nm/min
Baseline correction	Baseline
Shutter control	Auto


