TITLE	JS187+JS190_5E-5_H2O_44-56_100EQDT+72H
DATA TYPE	
ORIGIN	JASCO
OWNER	
DATE	24/01/26
TIME	10:18:57
SPECTROMETER/DATA SYSTEM	
LOCALE	1033
RESOLUTION	
DELTAX	-0.5
XUNITS	NANOMETERS
YUNITS	CD [mdeg]
Y2UNITS	LD [dOD]
Y3UNITS	ABSORBANCE
Y4UNITS	HT [V]
FIRSTX	  700.0000
LASTX	  220.0000
NPOINTS	     961
FIRSTY	     2.04993
MAXY	    13.99235
MINY	   -12.60736
XYDATA
700.0000	2.04993	-4.48511E-005	0.00915921	305.223
699.5000	1.91361	-3.81307E-005	0.00837835	304.943
699.0000	1.86385	-3.49567E-005	0.00759136	304.617
698.5000	2.22814	-2.53826E-005	0.0073104	304.254
698.0000	2.22719	-4.1408E-005	0.00651359	303.842
697.5000	1.97668	-2.60889E-005	0.00527502	303.415
697.0000	1.88562	-7.54463E-006	0.00379753	302.946
696.5000	1.7927	-3.87676E-006	0.00294117	302.453
696.0000	1.51889	2.71943E-006	0.00274316	301.906
695.5000	1.45381	-8.59994E-006	0.00261477	301.366
695.0000	1.39967	-1.74955E-005	0.0029859	300.876
694.5000	1.24405	-2.09434E-005	0.00311343	300.384
694.0000	1.26122	-1.70176E-005	0.00435302	299.919
693.5000	1.46459	-5.93882E-006	0.00586741	299.486
693.0000	1.48415	-7.96832E-006	0.00798257	299.108
692.5000	1.11874	3.33575E-006	0.0101025	298.754
692.0000	1.11295	8.36496E-006	0.0123475	298.452
691.5000	1.11349	-2.12894E-005	0.0149458	298.193
691.0000	1.04514	-1.82654E-005	0.0172411	297.925
690.5000	0.892119	-3.8897E-006	0.0188391	297.696
690.0000	0.97667	-5.39121E-006	0.0200829	297.481
689.5000	0.943991	-8.04234E-006	0.0213242	297.289
689.0000	0.862202	-1.30529E-005	0.0231903	297.14
688.5000	0.877372	-2.37095E-005	0.0251237	297.076
688.0000	0.884089	-2.02661E-005	0.027889	297.118
687.5000	0.75673	-5.99756E-006	0.0311776	297.258
687.0000	0.642273	5.21545E-006	0.0341129	297.443
686.5000	0.497487	-7.561E-006	0.0366265	297.678
686.0000	0.350428	-2.63036E-005	0.0378921	297.929
685.5000	0.38988	-1.52373E-005	0.0381867	298.192
685.0000	-0.021463	-3.09955E-005	0.0381225	298.457
684.5000	-0.0787739	-3.53068E-005	0.0374558	298.708
684.0000	0.0578623	-3.24982E-005	0.0361042	298.932
683.5000	-0.0442619	-3.07928E-005	0.0351503	299.156
683.0000	-0.0581776	-2.09869E-005	0.0342182	299.394
682.5000	0.0419112	-2.87997E-005	0.0337771	299.634
682.0000	0.288116	-3.01511E-005	0.0333612	299.915
681.5000	0.3233	-3.08201E-005	0.0335635	300.206
681.0000	0.3841	-2.41115E-005	0.033829	300.516
680.5000	0.71662	-8.67485E-006	0.0340017	300.793
680.0000	0.740753	-1.57782E-005	0.032807	301.01
679.5000	0.680182	-3.79622E-005	0.0309405	301.157
679.0000	0.782517	-3.81182E-005	0.0279306	301.241
678.5000	0.812848	-3.97567E-005	0.0258849	301.282
678.0000	1.09426	-1.15259E-005	0.0238082	301.28
677.5000	1.19916	4.40809E-006	0.0225754	301.266
677.0000	1.28607	1.32982E-005	0.0218401	301.228
676.5000	1.42347	1.58214E-005	0.0219677	301.2
676.0000	1.41147	1.94911E-005	0.0221954	301.179
675.5000	1.42814	2.07781E-005	0.022486	301.163
675.0000	1.41629	1.46621E-005	0.0230238	301.156
674.5000	1.29248	2.83715E-005	0.0237754	301.139
674.0000	1.10972	3.72866E-005	0.0246616	301.137
673.5000	1.0204	4.89486E-005	0.0256383	301.144
673.0000	0.775247	6.79971E-005	0.025698	301.159
672.5000	0.684574	5.00093E-005	0.0258725	301.195
672.0000	0.766157	7.89818E-005	0.0262895	301.231
671.5000	0.770008	0.000101935	0.0272002	301.271
671.0000	0.560853	9.57164E-005	0.0281459	301.317
670.5000	0.602297	0.000103663	0.0292765	301.363
670.0000	0.460385	0.000112738	0.0302681	301.419
669.5000	0.539944	0.000113337	0.0307523	301.48
669.0000	0.673311	0.000103421	0.0312833	301.544
668.5000	0.756079	9.33753E-005	0.0319248	301.622
668.0000	0.730813	6.9562E-005	0.0323392	301.711
667.5000	0.796601	8.43152E-005	0.0324657	301.789
667.0000	0.638809	8.92445E-005	0.0324021	301.877
666.5000	0.771587	9.6882E-005	0.0324094	301.97
666.0000	0.723748	0.000110781	0.0317189	302.073
665.5000	0.723093	9.63181E-005	0.0314427	302.175
665.0000	0.969031	7.39735E-005	0.0320677	302.287
664.5000	1.18881	9.4304E-005	0.0328635	302.386
664.0000	1.13026	7.644E-005	0.0329728	302.485
663.5000	1.14728	5.21654E-005	0.032	302.574
663.0000	1.52688	4.53503E-005	0.0317627	302.653
662.5000	1.32949	5.95695E-005	0.0314471	302.729
662.0000	1.57649	4.34527E-005	0.0310266	302.79
661.5000	1.33937	3.76896E-005	0.03106	302.832
661.0000	1.11307	3.75749E-005	0.0307273	302.865
660.5000	1.18188	4.48149E-005	0.0302283	302.891
660.0000	1.53139	6.41137E-005	0.0298988	302.898
659.5000	1.46857	8.07883E-005	0.0291397	302.896
659.0000	1.57731	7.51092E-005	0.0285064	302.87
658.5000	1.4233	6.65747E-005	0.0281216	302.833
658.0000	1.70855	6.20049E-005	0.0280152	302.772
657.5000	1.97975	5.98407E-005	0.0273624	302.693
657.0000	1.83698	7.34221E-005	0.0275173	302.587
656.5000	1.69917	7.28406E-005	0.026512	302.456
656.0000	1.81865	7.34629E-005	0.0255237	302.301
655.5000	1.9746	5.72046E-005	0.0258415	302.119
655.0000	1.77998	6.94182E-005	0.0254798	301.925
654.5000	1.93451	6.9658E-005	0.0246016	301.73
654.0000	1.98973	5.957E-005	0.0244197	301.525
653.5000	1.98481	6.97891E-005	0.0250671	301.339
653.0000	2.22781	8.32598E-005	0.0259029	301.152
652.5000	2.134	0.000109423	0.0267544	300.993
652.0000	2.24266	0.000112972	0.0279241	300.873
651.5000	2.03493	0.000104136	0.0294842	300.772
651.0000	1.91405	7.17005E-005	0.0316405	300.712
650.5000	1.83199	8.27267E-005	0.0330933	300.682
650.0000	2.0974	7.65269E-005	0.0349188	300.672
649.5000	1.75194	8.9989E-005	0.0362502	300.691
649.0000	1.51711	8.73594E-005	0.0377856	300.728
648.5000	1.56984	7.42258E-005	0.0384477	300.793
648.0000	1.85669	7.32714E-005	0.0395883	300.893
647.5000	1.60687	8.98958E-005	0.0406916	301.016
647.0000	1.47905	0.000102762	0.0413667	301.171
646.5000	1.34979	0.000106472	0.041913	301.334
646.0000	1.36241	0.000107432	0.0433502	301.5
645.5000	1.19802	0.000123478	0.0440278	301.667
645.0000	1.20127	9.80664E-005	0.0434288	301.808
644.5000	1.23077	0.000105613	0.0432063	301.938
644.0000	1.25605	8.5416E-005	0.0429983	302.031
643.5000	1.15093	7.10876E-005	0.0424049	302.101
643.0000	1.46395	8.7095E-005	0.0418974	302.149
642.5000	1.60807	0.000112144	0.0412854	302.159
642.0000	1.63892	0.000132078	0.0408441	302.148
641.5000	1.7678	0.000127338	0.0403234	302.123
641.0000	1.73152	0.000119969	0.0402139	302.089
640.5000	1.62814	0.000121451	0.0406511	302.056
640.0000	1.5592	0.000134796	0.0410783	301.989
639.5000	1.49048	0.000117148	0.0417351	301.901
639.0000	1.49992	0.000133339	0.042264	301.817
638.5000	1.69381	0.000104217	0.0432613	301.724
638.0000	1.78627	0.000123659	0.0436711	301.629
637.5000	1.80807	0.000122668	0.0438859	301.534
637.0000	1.60823	0.000140913	0.0450026	301.439
636.5000	1.79304	0.000134088	0.0458587	301.348
636.0000	1.88737	0.00011431	0.0460672	301.263
635.5000	2.08671	0.000135012	0.0464002	301.182
635.0000	1.90335	0.00013382	0.0473246	301.12
634.5000	1.75011	0.000106394	0.0482248	301.07
634.0000	1.47548	9.45345E-005	0.0490539	301.025
633.5000	1.58487	8.2467E-005	0.04946	300.979
633.0000	1.52726	8.2748E-005	0.0504118	300.937
632.5000	1.58553	7.04419E-005	0.0505869	300.884
632.0000	1.95815	7.12665E-005	0.050859	300.839
631.5000	2.00735	8.25343E-005	0.0514645	300.799
631.0000	2.08152	8.88869E-005	0.0521411	300.77
630.5000	1.95486	8.5263E-005	0.0527284	300.734
630.0000	2.07158	9.92975E-005	0.0533083	300.69
629.5000	2.11804	9.13685E-005	0.0540579	300.648
629.0000	2.14094	0.000103545	0.0545778	300.608
628.5000	2.10393	0.00010517	0.0549101	300.569
628.0000	2.24776	0.000117681	0.0554811	300.527
627.5000	2.16011	0.000143952	0.0563729	300.482
627.0000	2.07669	0.000131162	0.0567569	300.437
626.5000	2.20807	0.000138285	0.0567227	300.383
626.0000	2.16859	0.000140456	0.0566766	300.32
625.5000	2.11062	0.00016219	0.0574903	300.278
625.0000	2.08884	0.00014624	0.0583709	300.237
624.5000	2.18498	0.000163024	0.0592838	300.202
624.0000	2.03567	0.000177588	0.0601825	300.185
623.5000	1.90862	0.00017676	0.0610928	300.175
623.0000	1.73433	0.000165823	0.0620097	300.18
622.5000	1.80398	0.000179497	0.0631271	300.203
622.0000	1.87428	0.000174158	0.0638749	300.226
621.5000	1.83161	0.000172939	0.0647946	300.272
621.0000	1.80886	0.000171369	0.0657148	300.323
620.5000	1.8155	0.000150556	0.0662735	300.376
620.0000	1.88272	0.000153727	0.0668213	300.451
619.5000	1.71365	0.000146268	0.0677485	300.552
619.0000	1.62007	0.000116929	0.0691052	300.668
618.5000	1.50341	0.000111286	0.0708661	300.797
618.0000	1.42426	0.0001146	0.07266	300.932
617.5000	1.66393	0.000106959	0.0735458	301.083
617.0000	1.42141	0.00011843	0.0741109	301.236
616.5000	1.28958	0.000128387	0.0746918	301.385
616.0000	1.3201	0.000123074	0.0757733	301.539
615.5000	1.29801	0.000104696	0.0763516	301.683
615.0000	1.64076	0.000111652	0.0768884	301.832
614.5000	1.78793	0.000111701	0.0772237	301.979
614.0000	1.73671	9.23894E-005	0.0775538	302.122
613.5000	1.80153	9.03296E-005	0.0780876	302.262
613.0000	1.70925	9.13104E-005	0.0785366	302.41
612.5000	1.73483	0.000103377	0.0791195	302.561
612.0000	1.98441	0.000108783	0.0798072	302.711
611.5000	1.99813	9.26118E-005	0.0806862	302.849
611.0000	1.9259	9.19602E-005	0.0810875	302.992
610.5000	2.22983	9.15721E-005	0.081342	303.127
610.0000	2.14187	8.60811E-005	0.081366	303.247
609.5000	2.06099	8.22562E-005	0.082059	303.37
609.0000	2.03963	7.29929E-005	0.0825467	303.47
608.5000	1.95568	7.1132E-005	0.0834698	303.576
608.0000	2.01132	8.44255E-005	0.0840577	303.68
607.5000	1.89577	8.08355E-005	0.0841483	303.777
607.0000	1.94884	7.72159E-005	0.084592	303.871
606.5000	1.76398	7.04768E-005	0.0852418	303.973
606.0000	1.43043	8.26835E-005	0.0865151	304.067
605.5000	1.32458	9.70032E-005	0.0875622	304.169
605.0000	1.42318	0.000103873	0.0887945	304.255
604.5000	1.21019	9.61719E-005	0.0897406	304.334
604.0000	0.859805	0.000104465	0.0908635	304.404
603.5000	0.729956	8.98305E-005	0.0920797	304.466
603.0000	1.02311	0.000102827	0.0930166	304.54
602.5000	0.903971	9.44463E-005	0.0944118	304.613
602.0000	1.12797	8.66647E-005	0.0959381	304.681
601.5000	1.25296	8.34952E-005	0.0973668	304.752
601.0000	1.287	8.2115E-005	0.0987371	304.817
600.5000	1.49968	9.81973E-005	0.100523	304.869
600.0000	1.58786	8.74792E-005	0.101982	304.914
599.5000	1.54147	8.46589E-005	0.104176	304.943
599.0000	1.45612	9.09812E-005	0.105906	304.963
598.5000	1.23684	9.76237E-005	0.108232	304.981
598.0000	1.54803	9.41063E-005	0.110153	305.001
597.5000	1.51224	9.12419E-005	0.111886	305.021
597.0000	1.50776	7.39625E-005	0.113846	305.033
596.5000	1.48206	7.17286E-005	0.115997	305.039
596.0000	1.61636	8.57334E-005	0.118328	305.056
595.5000	1.52698	7.67236E-005	0.120473	305.072
595.0000	1.29346	7.76148E-005	0.122848	305.07
594.5000	1.52821	8.65935E-005	0.125297	305.076
594.0000	1.55332	9.97165E-005	0.1273	305.091
593.5000	1.31287	9.94619E-005	0.129725	305.092
593.0000	1.30471	0.000100762	0.132623	305.106
592.5000	1.371	0.000100781	0.135012	305.137
592.0000	1.30177	9.44644E-005	0.137513	305.202
591.5000	1.1531	8.64857E-005	0.139677	305.263
591.0000	1.40588	0.000102177	0.142487	305.341
590.5000	1.27758	7.83512E-005	0.144955	305.427
590.0000	1.42955	7.51864E-005	0.147569	305.518
589.5000	1.49604	7.75378E-005	0.150371	305.612
589.0000	1.29021	8.4015E-005	0.153284	305.722
588.5000	1.39239	9.52679E-005	0.156234	305.86
588.0000	1.34768	0.000108002	0.159561	306.019
587.5000	1.5169	0.000116318	0.162848	306.191
587.0000	1.52092	0.000103214	0.166307	306.415
586.5000	1.30768	9.2986E-005	0.16932	306.606
586.0000	0.882778	8.81343E-005	0.173121	306.822
585.5000	0.925292	9.42965E-005	0.176609	307.06
585.0000	0.899054	0.000103948	0.180138	307.319
584.5000	0.669316	0.000114359	0.183673	307.579
584.0000	0.63457	0.000114897	0.187628	307.855
583.5000	0.449015	0.000123884	0.191899	308.159
583.0000	0.342743	0.000117595	0.196747	308.498
582.5000	0.300964	0.000128135	0.201282	308.847
582.0000	-0.0219424	0.000138552	0.206013	309.21
581.5000	-0.26216	0.000158814	0.211182	309.622
581.0000	-0.463124	0.000168062	0.216773	310.049
580.5000	-0.662847	0.00017636	0.222442	310.49
580.0000	-0.742471	0.000175657	0.227707	310.911
579.5000	-1.01924	0.000174022	0.233201	311.37
579.0000	-1.01867	0.000210908	0.238825	311.83
578.5000	-1.18417	0.000228454	0.24514	312.318
578.0000	-1.10787	0.000255321	0.251453	312.835
577.5000	-1.40862	0.000249285	0.257684	313.403
577.0000	-1.70184	0.000253407	0.264633	313.955
576.5000	-1.67131	0.000253188	0.272329	314.575
576.0000	-1.70604	0.000258293	0.279816	315.181
575.5000	-1.95119	0.000248148	0.287804	315.823
575.0000	-2.03141	0.000276863	0.2949	316.435
574.5000	-2.49125	0.000295637	0.302991	317.114
574.0000	-2.51846	0.000301073	0.311303	317.787
573.5000	-2.62315	0.000315731	0.319697	318.481
573.0000	-2.77819	0.000305173	0.328149	319.228
572.5000	-2.91192	0.00029386	0.336103	319.936
572.0000	-3.13101	0.000316421	0.345232	320.767
571.5000	-3.4263	0.000323453	0.354284	321.569
571.0000	-3.70195	0.000336892	0.364469	322.427
570.5000	-3.89642	0.000332969	0.374389	323.314
570.0000	-4.19069	0.000336284	0.383992	324.183
569.5000	-4.6201	0.000339844	0.394626	325.094
569.0000	-4.90163	0.00035234	0.405259	326.002
568.5000	-5.07244	0.000376021	0.415003	326.889
568.0000	-5.58939	0.000347766	0.424765	327.808
567.5000	-5.71742	0.000380674	0.434606	328.728
567.0000	-5.86372	0.000382862	0.44458	329.626
566.5000	-5.89892	0.000362978	0.454395	330.491
566.0000	-6.23575	0.000363757	0.463942	331.33
565.5000	-6.22245	0.000377952	0.473078	332.164
565.0000	-6.23941	0.000380201	0.482202	332.964
564.5000	-6.37024	0.000397515	0.491465	333.773
564.0000	-6.53665	0.000376576	0.50015	334.497
563.5000	-6.60076	0.00037291	0.508213	335.192
563.0000	-6.51446	0.000383363	0.516135	335.903
562.5000	-6.46316	0.000366525	0.523573	336.544
562.0000	-6.33545	0.000351137	0.53075	337.155
561.5000	-6.42091	0.000348357	0.53864	337.789
561.0000	-6.3094	0.000345417	0.54557	338.367
560.5000	-6.24784	0.000342431	0.551985	338.904
560.0000	-6.19132	0.000325273	0.558334	339.406
559.5000	-6.00351	0.00032555	0.564428	339.838
559.0000	-5.83777	0.000305054	0.5697	340.211
558.5000	-5.80734	0.000290766	0.573989	340.52
558.0000	-5.53441	0.000263387	0.577609	340.77
557.5000	-5.40451	0.000248636	0.581321	340.997
557.0000	-5.4914	0.00021944	0.584635	341.168
556.5000	-5.6115	0.000186895	0.586949	341.285
556.0000	-5.34977	0.000152284	0.588365	341.362
555.5000	-5.00226	0.000125341	0.589781	341.403
555.0000	-4.8428	0.0001053	0.591001	341.405
554.5000	-4.71392	8.40889E-005	0.592131	341.357
554.0000	-4.58711	6.90033E-005	0.592134	341.25
553.5000	-4.52283	5.0063E-005	0.59153	341.079
553.0000	-4.2045	5.62792E-005	0.590881	340.913
552.5000	-4.35507	2.59171E-005	0.590407	340.714
552.0000	-4.16018	1.40397E-005	0.589487	340.463
551.5000	-4.28755	-7.73509E-006	0.588524	340.221
551.0000	-4.36427	-2.14151E-005	0.586807	339.943
550.5000	-4.27788	-3.77153E-005	0.584846	339.623
550.0000	-4.10855	-1.98389E-005	0.583108	339.298
549.5000	-4.15775	-1.68834E-005	0.581585	338.977
549.0000	-4.18296	-2.70886E-005	0.579289	338.637
548.5000	-3.808	-3.56295E-005	0.577021	338.312
548.0000	-3.80572	-2.86965E-005	0.575651	337.957
547.5000	-3.93761	-1.99941E-005	0.574278	337.627
547.0000	-4.03373	-3.09127E-005	0.572684	337.252
546.5000	-3.90873	-6.57985E-006	0.570912	336.924
546.0000	-3.76361	-3.50231E-006	0.568676	336.62
545.5000	-3.79943	1.45736E-005	0.567651	336.331
545.0000	-3.73656	9.69939E-006	0.566688	336.095
544.5000	-3.54575	2.873E-006	0.56573	335.848
544.0000	-3.42666	3.66871E-005	0.564509	335.621
543.5000	-3.35804	5.21265E-005	0.563585	335.411
543.0000	-3.31117	6.48267E-005	0.563113	335.231
542.5000	-3.43985	6.93982E-005	0.563131	335.073
542.0000	-3.20866	6.86113E-005	0.563054	334.94
541.5000	-3.20254	8.42604E-005	0.563154	334.844
541.0000	-3.25166	7.28576E-005	0.56303	334.748
540.5000	-3.25062	9.88557E-005	0.563872	334.677
540.0000	-3.16285	9.79575E-005	0.564931	334.614
539.5000	-3.12229	0.000124	0.56597	334.6
539.0000	-2.89536	0.000142417	0.567004	334.622
538.5000	-3.13353	0.000124199	0.568506	334.672
538.0000	-3.34255	0.000108601	0.570489	334.728
537.5000	-3.57944	0.000103404	0.572553	334.803
537.0000	-3.33202	9.2058E-005	0.574672	334.907
536.5000	-3.342	0.000100624	0.577098	335.026
536.0000	-3.3382	8.4819E-005	0.580161	335.194
535.5000	-3.01487	9.14422E-005	0.583239	335.372
535.0000	-3.19051	0.000103662	0.586822	335.584
534.5000	-3.10624	0.00010695	0.590057	335.772
534.0000	-2.96374	0.000125356	0.593698	336.005
533.5000	-3.27234	0.000136424	0.597351	336.263
533.0000	-3.28985	0.000125597	0.601007	336.531
532.5000	-3.37331	0.000133041	0.604761	336.816
532.0000	-3.60249	0.000118499	0.608929	337.131
531.5000	-3.46519	0.000114177	0.613402	337.463
531.0000	-3.75438	9.91149E-005	0.618636	337.81
530.5000	-3.60079	9.09967E-005	0.623389	338.15
530.0000	-3.46432	8.65543E-005	0.628319	338.525
529.5000	-3.13427	8.19926E-005	0.633226	338.898
529.0000	-3.25228	7.33951E-005	0.638093	339.239
528.5000	-3.29422	4.96929E-005	0.642828	339.589
528.0000	-3.28114	1.71558E-005	0.64742	339.928
527.5000	-3.69349	4.44824E-007	0.652288	340.269
527.0000	-3.8819	-2.64663E-005	0.657502	340.632
526.5000	-3.84527	-7.08724E-005	0.662164	340.975
526.0000	-3.91243	-8.22693E-005	0.667372	341.342
525.5000	-3.79237	-0.000109435	0.672354	341.684
525.0000	-3.61834	-0.000124699	0.677172	342.014
524.5000	-3.51495	-0.000130963	0.681934	342.327
524.0000	-3.68624	-0.0001408	0.686291	342.604
523.5000	-3.68622	-0.000157663	0.690485	342.897
523.0000	-3.49592	-0.000172496	0.694464	343.169
522.5000	-3.34806	-0.000180957	0.698059	343.428
522.0000	-3.26207	-0.000186575	0.701931	343.688
521.5000	-3.11285	-0.000188501	0.705923	343.936
521.0000	-3.13908	-0.000172858	0.709534	344.165
520.5000	-3.01696	-0.000197309	0.713167	344.399
520.0000	-3.02615	-0.000200508	0.716242	344.585
519.5000	-3.00193	-0.000196519	0.719623	344.774
519.0000	-2.30875	-0.000191296	0.722674	344.957
518.5000	-2.40658	-0.000198916	0.725322	345.131
518.0000	-2.17348	-0.000230634	0.728404	345.315
517.5000	-1.89742	-0.000255785	0.731533	345.496
517.0000	-1.85309	-0.000292634	0.734953	345.683
516.5000	-1.41971	-0.000298645	0.738254	345.854
516.0000	-1.1258	-0.000303228	0.741416	346.033
515.5000	-0.962116	-0.000305925	0.744089	346.209
515.0000	-0.915922	-0.000327462	0.746663	346.364
514.5000	-0.684166	-0.000341962	0.749184	346.528
514.0000	-0.521617	-0.000368086	0.7515	346.661
513.5000	-0.38436	-0.00038576	0.75405	346.809
513.0000	-0.359941	-0.00038944	0.756274	346.962
512.5000	-0.20118	-0.000398315	0.759004	347.14
512.0000	0.109042	-0.000414634	0.761639	347.303
511.5000	0.586916	-0.000418781	0.763737	347.448
511.0000	0.783456	-0.000434067	0.765995	347.592
510.5000	0.859663	-0.000448147	0.768455	347.732
510.0000	0.964295	-0.000439493	0.7708	347.862
509.5000	1.05254	-0.000424299	0.77288	347.98
509.0000	1.07546	-0.00041108	0.774738	348.088
508.5000	1.12601	-0.000425695	0.776369	348.161
508.0000	1.24221	-0.000429665	0.778227	348.225
507.5000	1.15149	-0.000444456	0.779922	348.262
507.0000	1.34357	-0.000460083	0.781731	348.306
506.5000	1.06082	-0.000463853	0.783531	348.353
506.0000	1.28672	-0.0004543	0.78487	348.394
505.5000	1.40331	-0.000450605	0.786121	348.425
505.0000	1.33304	-0.0004792	0.787405	348.45
504.5000	1.32611	-0.000476779	0.788542	348.446
504.0000	1.14213	-0.000525064	0.789256	348.403
503.5000	1.28004	-0.000529941	0.789783	348.347
503.0000	1.3672	-0.000540985	0.790142	348.255
502.5000	1.29172	-0.000542224	0.790175	348.148
502.0000	1.20736	-0.000552794	0.789964	348.023
501.5000	1.04978	-0.000576632	0.789692	347.872
501.0000	1.04937	-0.000584939	0.789124	347.676
500.5000	1.28828	-0.000600621	0.788475	347.447
500.0000	1.22831	-0.000610393	0.787447	347.16
499.5000	1.28931	-0.000636026	0.785712	346.824
499.0000	1.52187	-0.000665764	0.783593	346.376
498.5000	1.6968	-0.000679843	0.78106	345.804
498.0000	1.98859	-0.000696183	0.778097	345.097
497.5000	1.7071	-0.000726559	0.775297	344.246
497.0000	2.04444	-0.000750245	0.773054	343.359
496.5000	2.01664	-0.000734547	0.771236	342.447
496.0000	2.17443	-0.00075522	0.770635	341.718
495.5000	2.17068	-0.000754032	0.770306	341.15
495.0000	2.06329	-0.000783098	0.769144	340.71
494.5000	1.72208	-0.000781295	0.767162	340.292
494.0000	1.92001	-0.000788297	0.764938	339.893
493.5000	1.99877	-0.000799755	0.762493	339.471
493.0000	2.06011	-0.000857725	0.760206	339.078
492.5000	2.30578	-0.000867801	0.758131	338.71
492.0000	2.25232	-0.000914729	0.755662	338.316
491.5000	2.31338	-0.000928582	0.75314	337.961
491.0000	2.6839	-0.000922485	0.750804	337.625
490.5000	2.67717	-0.000921374	0.748626	337.344
490.0000	2.56648	-0.000939428	0.746494	337.118
489.5000	2.78902	-0.000960844	0.744248	336.942
489.0000	2.78285	-0.000990843	0.741731	336.766
488.5000	3.07197	-0.000988757	0.738559	336.538
488.0000	3.40711	-0.00100035	0.734056	336.101
487.5000	3.54758	-0.00100789	0.729011	335.45
487.0000	3.62667	-0.00101051	0.725037	334.716
486.5000	3.87812	-0.00101862	0.720929	333.851
486.0000	4.06051	-0.00105552	0.717288	332.985
485.5000	4.09177	-0.00107585	0.714962	332.143
485.0000	4.12552	-0.00107144	0.713501	331.392
484.5000	4.0728	-0.00107735	0.711553	330.769
484.0000	4.23877	-0.00106194	0.709166	330.234
483.5000	4.07095	-0.0010839	0.706784	329.784
483.0000	4.32308	-0.00108309	0.703838	329.359
482.5000	4.33646	-0.00112604	0.700612	328.99
482.0000	4.29772	-0.00112866	0.697063	328.646
481.5000	4.38838	-0.00112247	0.693847	328.334
481.0000	4.69001	-0.00111879	0.690681	328.034
480.5000	4.77878	-0.00111204	0.687341	327.76
480.0000	4.65252	-0.00111001	0.68366	327.494
479.5000	4.51056	-0.00113015	0.679832	327.222
479.0000	4.4586	-0.0011438	0.674398	326.818
478.5000	4.53603	-0.00116632	0.668159	326.157
478.0000	4.44181	-0.00118258	0.663244	325.287
477.5000	4.45373	-0.00116492	0.661489	324.576
477.0000	4.37432	-0.00117457	0.660087	324.077
476.5000	4.36589	-0.001174	0.655359	323.506
476.0000	4.49885	-0.00118295	0.64915	322.729
475.5000	4.41608	-0.00116962	0.642544	321.718
475.0000	4.52948	-0.00116859	0.636009	320.513
474.5000	4.39436	-0.00116962	0.630419	319.229
474.0000	4.46315	-0.00114842	0.625357	317.829
473.5000	4.41926	-0.00115311	0.619643	316.199
473.0000	4.13257	-0.00116144	0.613919	314.419
472.5000	3.84505	-0.0011591	0.609564	312.561
472.0000	3.92781	-0.00113965	0.607812	311.034
471.5000	3.84229	-0.00114573	0.606839	309.841
471.0000	3.81371	-0.00112151	0.605847	309.141
470.5000	3.57453	-0.00111705	0.604844	308.728
470.0000	3.66737	-0.00109868	0.60315	308.609
469.5000	3.60513	-0.00111395	0.598784	308.521
469.0000	3.57078	-0.0011239	0.589995	308.045
468.5000	3.65052	-0.00112754	0.581282	307.19
468.0000	3.56251	-0.00111061	0.575286	306.28
467.5000	3.49291	-0.00110103	0.571242	305.527
467.0000	3.61401	-0.0010779	0.568587	305.001
466.5000	3.51159	-0.00107479	0.566376	304.677
466.0000	3.40782	-0.0010945	0.563393	304.533
465.5000	3.2602	-0.00109923	0.560107	304.602
465.0000	3.24373	-0.0010751	0.556438	304.93
464.5000	3.19399	-0.00107194	0.55126	305.404
464.0000	2.93058	-0.00108081	0.543469	305.704
463.5000	2.85862	-0.00106576	0.534083	305.654
463.0000	2.74989	-0.00105764	0.525179	305.297
462.5000	2.78751	-0.00104605	0.518096	304.806
462.0000	2.77674	-0.00103483	0.51247	304.293
461.5000	2.7725	-0.00102428	0.507647	303.878
461.0000	2.93107	-0.00101222	0.503029	303.591
460.5000	2.92431	-0.00100461	0.498183	303.431
460.0000	3.02872	-0.000990885	0.493282	303.348
459.5000	2.87487	-0.000992019	0.487875	303.305
459.0000	2.99889	-0.000982805	0.481347	303.202
458.5000	2.89876	-0.000980162	0.474169	302.996
458.0000	3.09346	-0.00095993	0.466606	302.65
457.5000	3.15047	-0.000943394	0.458866	302.087
457.0000	3.17131	-0.000927298	0.451671	301.352
456.5000	3.05514	-0.000921093	0.446315	300.669
456.0000	3.10803	-0.000901963	0.440495	300.055
455.5000	3.07821	-0.000888739	0.432733	299.283
455.0000	3.15006	-0.000882356	0.425464	298.38
454.5000	3.22927	-0.000867463	0.420578	297.571
454.0000	3.13748	-0.00085512	0.41665	297.018
453.5000	3.23857	-0.000835455	0.411225	296.622
453.0000	3.19075	-0.000814305	0.40503	296.222
452.5000	3.09825	-0.000806991	0.398774	295.773
452.0000	3.01542	-0.000768821	0.393065	295.316
451.5000	2.99009	-0.000758963	0.387029	294.832
451.0000	2.89729	-0.00074813	0.381187	294.358
450.5000	2.88166	-0.000725322	0.375294	293.863
450.0000	2.63846	-0.000722463	0.370099	293.385
449.5000	2.5202	-0.000709126	0.365792	293.022
449.0000	2.52755	-0.000700563	0.361865	292.815
448.5000	2.3556	-0.000680749	0.356369	292.608
448.0000	2.43062	-0.000651003	0.350262	292.284
447.5000	2.35911	-0.000646048	0.345705	291.975
447.0000	2.28119	-0.00063621	0.343058	291.905
446.5000	2.2724	-0.000623258	0.339616	291.977
446.0000	2.38543	-0.00060364	0.333024	291.888
445.5000	2.30021	-0.00059082	0.325926	291.486
445.0000	2.14129	-0.000588063	0.320397	290.961
444.5000	2.03239	-0.000589904	0.315164	290.388
444.0000	2.22029	-0.000573997	0.310308	289.823
443.5000	2.19789	-0.000572779	0.305311	289.179
443.0000	2.07086	-0.000555306	0.301217	288.605
442.5000	2.22268	-0.000535431	0.29749	288.074
442.0000	2.0938	-0.000520658	0.293951	287.63
441.5000	2.2615	-0.00050659	0.289763	287.159
441.0000	2.20532	-0.000478549	0.285899	286.734
440.5000	2.05898	-0.000463293	0.28218	286.325
440.0000	2.01801	-0.000455775	0.278285	285.906
439.5000	2.17285	-0.000448472	0.274322	285.486
439.0000	2.19642	-0.000425273	0.270056	285.046
438.5000	2.20705	-0.000406698	0.265417	284.592
438.0000	2.09629	-0.000386605	0.26063	284.145
437.5000	2.08546	-0.000386444	0.256283	283.728
437.0000	2.26734	-0.000364828	0.251637	283.303
436.5000	2.3246	-0.000350103	0.248162	282.951
436.0000	2.19483	-0.000322768	0.244857	282.631
435.5000	2.10445	-0.000303552	0.241029	282.328
435.0000	2.01545	-0.000287343	0.237033	282.046
434.5000	2.04284	-0.000278557	0.232877	281.752
434.0000	1.92489	-0.000280901	0.228894	281.441
433.5000	1.92072	-0.000255298	0.225213	281.129
433.0000	1.97987	-0.000241546	0.221703	280.781
432.5000	1.98856	-0.00024214	0.218343	280.441
432.0000	2.08423	-0.000229962	0.214504	280.064
431.5000	1.93636	-0.000237931	0.210764	279.685
431.0000	1.99145	-0.000236497	0.207348	279.323
430.5000	1.91184	-0.000223872	0.204138	278.967
430.0000	1.73276	-0.000220382	0.201287	278.63
429.5000	1.58555	-0.000225381	0.198267	278.283
429.0000	1.40323	-0.000222673	0.195209	277.927
428.5000	1.45503	-0.000205095	0.192019	277.568
428.0000	1.54648	-0.000194763	0.188519	277.206
427.5000	1.60132	-0.000192352	0.185675	276.883
427.0000	1.56286	-0.000189231	0.18296	276.561
426.5000	1.63287	-0.000185035	0.180155	276.222
426.0000	1.51954	-0.000172078	0.177398	275.868
425.5000	1.59742	-0.000170082	0.174656	275.478
425.0000	1.44463	-0.000174392	0.171846	275.072
424.5000	1.49837	-0.000171202	0.169008	274.632
424.0000	1.5419	-0.00016211	0.166464	274.201
423.5000	1.59787	-0.000158418	0.164766	273.848
423.0000	1.50492	-0.000141485	0.162799	273.536
422.5000	1.45299	-0.000141597	0.160545	273.256
422.0000	1.39136	-0.000137369	0.158091	272.987
421.5000	1.51131	-0.000132869	0.15567	272.73
421.0000	1.66312	-0.000129366	0.15365	272.504
420.5000	1.79122	-0.000114079	0.151508	272.271
420.0000	1.80046	-0.000108396	0.149351	272.022
419.5000	1.66242	-0.000100589	0.147276	271.762
419.0000	1.70747	-9.44171E-005	0.145278	271.519
418.5000	1.6757	-0.000100243	0.14323	271.308
418.0000	1.55659	-8.53798E-005	0.141681	271.118
417.5000	1.50274	-7.8825E-005	0.139821	270.92
417.0000	1.45994	-6.94346E-005	0.138406	270.747
416.5000	1.41966	-5.48567E-005	0.137206	270.628
416.0000	1.24461	-6.02114E-005	0.135791	270.553
415.5000	1.27595	-4.84935E-005	0.134101	270.469
415.0000	1.336	-3.79157E-005	0.132196	270.33
414.5000	1.45539	-3.36089E-005	0.130591	270.144
414.0000	1.50646	-1.73879E-005	0.129569	269.968
413.5000	1.51412	-4.82094E-006	0.128643	269.782
413.0000	1.31124	6.81563E-006	0.127763	269.614
412.5000	1.30993	1.60752E-005	0.1268	269.462
412.0000	1.35142	2.78876E-005	0.126088	269.341
411.5000	1.35374	2.70997E-005	0.125047	269.215
411.0000	1.38833	1.58473E-005	0.124153	269.105
410.5000	1.35396	1.18457E-005	0.123414	269.002
410.0000	1.21324	7.4258E-006	0.122975	268.925
409.5000	1.12802	5.79801E-006	0.122405	268.848
409.0000	1.19348	9.68617E-007	0.12202	268.806
408.5000	1.20381	2.37009E-006	0.121307	268.762
408.0000	1.15163	1.59156E-007	0.120535	268.727
407.5000	1.38627	8.9549E-006	0.119779	268.687
407.0000	1.3157	1.12631E-005	0.119056	268.624
406.5000	1.20185	1.06317E-005	0.118557	268.566
406.0000	1.17938	1.21072E-005	0.117929	268.492
405.5000	1.15719	1.2356E-005	0.11709	268.406
405.0000	1.22793	-4.35303E-007	0.116312	268.303
404.5000	1.26215	7.33289E-006	0.115646	268.19
404.0000	1.21722	-4.22651E-006	0.115278	268.048
403.5000	0.987998	-1.06485E-006	0.114808	267.874
403.0000	0.917633	1.65175E-006	0.114778	267.695
402.5000	0.99645	1.33256E-005	0.114435	267.504
402.0000	1.01854	2.02615E-005	0.114466	267.319
401.5000	1.12998	2.8666E-005	0.114667	267.117
401.0000	1.0722	3.46489E-005	0.114603	266.932
400.5000	0.963949	4.50866E-005	0.114668	266.77
400.0000	1.01873	4.55726E-005	0.114539	266.623
399.5000	1.02407	3.52616E-005	0.114943	266.487
399.0000	0.846089	3.71215E-005	0.115386	266.388
398.5000	0.91438	2.68128E-005	0.115681	266.31
398.0000	0.877934	1.85063E-005	0.115918	266.251
397.5000	0.729156	1.66069E-005	0.116202	266.221
397.0000	0.662892	1.29348E-005	0.116735	266.21
396.5000	0.740318	1.29892E-005	0.117126	266.233
396.0000	0.661525	6.88456E-006	0.117447	266.269
395.5000	0.582287	3.95453E-006	0.117486	266.337
395.0000	0.594338	9.63229E-006	0.117686	266.434
394.5000	0.64368	1.41607E-005	0.118182	266.571
394.0000	0.561461	2.33553E-005	0.118634	266.726
393.5000	0.580499	1.83424E-005	0.118742	266.894
393.0000	0.475913	6.71315E-006	0.118713	267.076
392.5000	0.670292	1.70621E-005	0.11886	267.25
392.0000	0.742089	1.89074E-005	0.119137	267.399
391.5000	0.782721	2.46178E-005	0.119669	267.537
391.0000	0.793931	1.01109E-005	0.120037	267.662
390.5000	0.826933	6.89726E-006	0.120153	267.776
390.0000	0.747592	2.55396E-005	0.120207	267.874
389.5000	0.723322	3.39786E-005	0.120729	267.975
389.0000	0.838708	3.32869E-005	0.121434	268.071
388.5000	0.77677	2.81463E-005	0.121805	268.154
388.0000	0.802471	3.52182E-005	0.122043	268.231
387.5000	0.784688	3.05495E-005	0.122503	268.296
387.0000	0.717143	3.69576E-005	0.123517	268.366
386.5000	0.674364	3.60255E-005	0.124243	268.421
386.0000	0.676245	3.53993E-005	0.125182	268.479
385.5000	0.647778	8.89956E-006	0.126054	268.526
385.0000	0.745249	7.32595E-006	0.12683	268.559
384.5000	0.737204	6.50626E-006	0.127704	268.599
384.0000	0.60488	1.25212E-005	0.128806	268.647
383.5000	0.717732	2.10926E-005	0.129513	268.684
383.0000	0.904233	1.41873E-005	0.130098	268.722
382.5000	0.902677	2.41753E-005	0.130852	268.768
382.0000	0.923704	3.90831E-005	0.13198	268.808
381.5000	0.900009	1.96692E-005	0.133225	268.848
381.0000	0.952537	3.35022E-005	0.134327	268.904
380.5000	0.916706	2.59156E-005	0.135216	268.957
380.0000	0.903546	3.8424E-005	0.136215	268.999
379.5000	0.983733	4.64544E-005	0.137419	269.056
379.0000	0.959421	3.92322E-005	0.138184	269.106
378.5000	0.947549	3.70312E-005	0.138719	269.163
378.0000	1.05894	3.1841E-005	0.139303	269.219
377.5000	1.17907	3.33466E-005	0.139914	269.264
377.0000	1.17866	4.13855E-005	0.140286	269.289
376.5000	1.16784	4.63227E-005	0.141008	269.321
376.0000	1.20595	3.10356E-005	0.141713	269.345
375.5000	1.24235	1.74255E-005	0.142067	269.355
375.0000	1.17057	4.61137E-006	0.142543	269.368
374.5000	0.867373	8.26682E-006	0.143161	269.385
374.0000	0.874974	-5.34177E-006	0.143588	269.382
373.5000	0.802559	-1.54087E-005	0.144111	269.396
373.0000	0.740269	-2.53787E-005	0.144394	269.408
372.5000	0.916232	-1.77309E-005	0.144573	269.405
372.0000	0.998121	-2.63428E-005	0.144867	269.405
371.5000	1.02435	-3.84154E-005	0.145096	269.408
371.0000	1.06292	-4.78789E-005	0.145664	269.426
370.5000	1.07482	-3.63402E-005	0.146314	269.445
370.0000	1.10842	-3.67287E-005	0.146721	269.457
369.5000	0.980782	-4.54778E-005	0.147133	269.476
369.0000	0.963506	-4.33646E-005	0.147704	269.511
368.5000	0.926332	-4.14872E-005	0.148574	269.566
368.0000	0.834394	-4.38202E-005	0.149047	269.611
367.5000	0.724174	-3.76391E-005	0.149766	269.672
367.0000	0.836414	-4.07562E-005	0.150697	269.737
366.5000	0.924465	-4.1319E-005	0.151277	269.799
366.0000	0.804889	-4.28063E-005	0.151825	269.87
365.5000	0.85605	-4.98626E-005	0.152299	269.936
365.0000	0.934057	-5.25887E-005	0.152649	270.002
364.5000	0.851149	-5.23913E-005	0.153213	270.067
364.0000	0.765497	-6.05148E-005	0.153767	270.148
363.5000	0.841334	-4.32178E-005	0.154577	270.224
363.0000	0.813757	-6.60496E-005	0.155265	270.294
362.5000	0.775459	-7.18955E-005	0.15595	270.376
362.0000	0.816745	-8.1249E-005	0.156538	270.452
361.5000	0.819007	-7.36685E-005	0.157403	270.537
361.0000	0.646054	-7.2291E-005	0.157957	270.597
360.5000	0.508106	-7.72218E-005	0.158452	270.671
360.0000	0.63149	-6.96469E-005	0.159006	270.741
359.5000	0.645885	-8.66515E-005	0.159558	270.819
359.0000	0.685433	-9.53312E-005	0.159746	270.885
358.5000	0.635579	-9.11301E-005	0.159979	270.965
358.0000	0.647896	-9.52009E-005	0.160071	271.029
357.5000	0.669769	-7.99594E-005	0.16023	271.101
357.0000	0.783956	-8.70741E-005	0.160605	271.169
356.5000	0.941454	-8.53464E-005	0.161319	271.239
356.0000	1.02288	-0.000100628	0.161557	271.299
355.5000	1.02219	-9.98328E-005	0.161834	271.364
355.0000	1.14602	-9.67924E-005	0.162018	271.431
354.5000	1.11437	-8.16851E-005	0.162276	271.507
354.0000	1.11555	-9.28519E-005	0.162648	271.583
353.5000	1.14631	-8.99831E-005	0.16299	271.655
353.0000	1.24711	-9.79155E-005	0.16329	271.732
352.5000	1.3637	-0.000104138	0.163853	271.829
352.0000	1.61835	-0.00011097	0.164272	271.913
351.5000	1.63926	-0.000116212	0.164701	271.994
351.0000	1.79272	-0.000115583	0.165367	272.067
350.5000	1.82028	-0.000119669	0.166175	272.142
350.0000	1.84202	-0.000114122	0.167054	272.22
349.5000	1.77867	-0.00012918	0.168118	272.306
349.0000	1.90332	-0.000137012	0.169221	272.389
348.5000	1.78975	-0.000134699	0.170413	272.472
348.0000	1.70253	-0.000146974	0.171217	272.543
347.5000	1.57247	-0.000142043	0.172434	272.626
347.0000	1.56996	-0.000150907	0.173747	272.714
346.5000	1.43669	-0.000172267	0.174758	272.793
346.0000	1.52382	-0.000183878	0.175643	272.868
345.5000	1.48521	-0.000182793	0.17669	272.941
345.0000	1.41628	-0.000189637	0.177832	273.021
344.5000	1.59406	-0.000196987	0.178726	273.077
344.0000	1.52554	-0.00020868	0.179845	273.137
343.5000	1.39376	-0.000230342	0.180688	273.196
343.0000	1.41464	-0.000238458	0.181571	273.268
342.5000	1.32703	-0.000230479	0.182206	273.331
342.0000	1.50028	-0.00024223	0.183015	273.412
341.5000	1.54072	-0.000239361	0.183783	273.48
341.0000	1.66549	-0.000234908	0.18465	273.54
340.5000	1.77814	-0.000252744	0.185382	273.612
340.0000	1.67966	-0.000250639	0.186213	273.695
339.5000	1.7743	-0.000264435	0.186876	273.787
339.0000	1.86864	-0.000280415	0.187655	273.864
338.5000	1.95407	-0.000279546	0.188495	273.94
338.0000	2.01042	-0.000277949	0.189209	274.011
337.5000	2.03799	-0.00028103	0.18992	274.089
337.0000	2.24073	-0.000290811	0.190564	274.169
336.5000	2.16118	-0.000299244	0.191519	274.259
336.0000	2.31031	-0.000315053	0.1924	274.354
335.5000	2.39191	-0.00031533	0.193191	274.439
335.0000	2.47589	-0.000308556	0.194104	274.536
334.5000	2.63999	-0.000318132	0.194954	274.636
334.0000	2.68728	-0.000343257	0.195914	274.734
333.5000	2.67348	-0.000349258	0.197282	274.838
333.0000	2.73362	-0.000372302	0.198317	274.943
332.5000	2.48532	-0.000402078	0.199185	275.059
332.0000	2.71547	-0.000397709	0.19991	275.156
331.5000	2.88154	-0.000419699	0.200889	275.256
331.0000	2.91151	-0.000426178	0.201944	275.36
330.5000	2.77248	-0.000433503	0.202913	275.475
330.0000	2.74218	-0.000440477	0.203975	275.591
329.5000	2.63649	-0.000454003	0.205247	275.726
329.0000	2.70262	-0.000492693	0.206373	275.858
328.5000	2.56519	-0.000499077	0.207363	275.966
328.0000	2.61485	-0.000511387	0.208108	276.062
327.5000	2.4974	-0.000516012	0.20904	276.157
327.0000	2.59442	-0.000530871	0.210221	276.251
326.5000	2.56722	-0.000544226	0.211621	276.362
326.0000	2.36302	-0.000565109	0.213241	276.49
325.5000	2.27589	-0.000575263	0.214724	276.626
325.0000	2.09493	-0.000593934	0.215812	276.757
324.5000	2.09842	-0.00061184	0.217115	276.894
324.0000	2.09647	-0.000639365	0.218714	277.04
323.5000	1.93771	-0.000650112	0.220494	277.193
323.0000	1.82896	-0.000654736	0.221897	277.336
322.5000	1.7682	-0.000671417	0.223321	277.485
322.0000	1.82383	-0.000686656	0.224535	277.627
321.5000	1.91701	-0.000719465	0.226196	277.788
321.0000	2.00619	-0.000723563	0.227821	277.943
320.5000	2.16444	-0.000727626	0.229667	278.112
320.0000	2.15949	-0.000739157	0.231251	278.271
319.5000	2.11019	-0.000767447	0.232907	278.437
319.0000	1.97385	-0.000774684	0.234494	278.62
318.5000	1.93626	-0.000811924	0.236027	278.808
318.0000	1.86851	-0.000823273	0.237365	278.974
317.5000	2.09806	-0.000833665	0.238728	279.122
317.0000	2.00402	-0.000850471	0.240339	279.267
316.5000	2.20752	-0.000864811	0.242011	279.403
316.0000	2.24868	-0.000879637	0.243831	279.556
315.5000	2.30409	-0.000881162	0.245306	279.71
315.0000	2.44491	-0.000899521	0.24692	279.888
314.5000	2.47277	-0.00091937	0.248596	280.072
314.0000	2.5705	-0.000917644	0.250425	280.261
313.5000	2.57036	-0.000947659	0.252327	280.452
313.0000	2.66013	-0.000949517	0.254172	280.649
312.5000	2.63912	-0.000956039	0.255756	280.834
312.0000	2.52327	-0.000970582	0.257728	281.035
311.5000	2.54261	-0.000977491	0.259695	281.248
311.0000	2.71156	-0.000996654	0.261987	281.469
310.5000	2.82432	-0.000999695	0.264089	281.712
310.0000	2.79481	-0.000991971	0.266409	281.954
309.5000	2.84232	-0.00100844	0.268823	282.202
309.0000	2.9379	-0.00101874	0.271469	282.479
308.5000	3.04063	-0.00102781	0.27394	282.769
308.0000	2.96148	-0.0010342	0.276334	283.047
307.5000	2.9961	-0.00104807	0.279178	283.361
307.0000	3.09359	-0.00105363	0.282058	283.657
306.5000	3.20405	-0.0010655	0.285372	283.996
306.0000	3.49264	-0.00107909	0.288753	284.327
305.5000	3.55429	-0.00109659	0.291959	284.671
305.0000	3.6621	-0.00109456	0.295324	285.018
304.5000	3.62668	-0.00111614	0.299325	285.41
304.0000	3.58904	-0.00114144	0.303707	285.831
303.5000	3.58979	-0.00115218	0.307995	286.245
303.0000	3.60519	-0.00115681	0.312547	286.706
302.5000	3.5353	-0.00116696	0.317216	287.184
302.0000	3.5966	-0.00118697	0.32219	287.673
301.5000	3.68082	-0.00120412	0.327518	288.192
301.0000	3.81303	-0.00121377	0.332744	288.723
300.5000	3.59561	-0.00122599	0.337381	289.198
300.0000	3.57757	-0.00123764	0.343392	289.779
299.5000	3.72265	-0.00125522	0.349076	290.34
299.0000	3.71824	-0.00125611	0.354569	290.899
298.5000	3.57589	-0.00126876	0.360077	291.471
298.0000	3.46404	-0.00126826	0.365402	292.015
297.5000	3.38193	-0.00127636	0.371005	292.582
297.0000	3.32465	-0.00128733	0.376524	293.096
296.5000	3.246	-0.00128536	0.381645	293.591
296.0000	3.20132	-0.00127931	0.386585	294.075
295.5000	3.15152	-0.00126523	0.391339	294.516
295.0000	3.1593	-0.00126787	0.395913	294.922
294.5000	3.14486	-0.0012761	0.400467	295.339
294.0000	3.10982	-0.0012628	0.405029	295.798
293.5000	3.12664	-0.00124498	0.408596	296.176
293.0000	3.07832	-0.00121397	0.412365	296.568
292.5000	3.18664	-0.00119494	0.416032	296.97
292.0000	3.18645	-0.0011717	0.419275	297.343
291.5000	3.00497	-0.00113805	0.422463	297.699
291.0000	2.92165	-0.00112119	0.42562	298.049
290.5000	2.80027	-0.00110585	0.429022	298.418
290.0000	2.59945	-0.00108672	0.432379	298.762
289.5000	2.36508	-0.00105707	0.435206	299.085
289.0000	2.38559	-0.00102563	0.437914	299.402
288.5000	2.23871	-0.000996904	0.440886	299.757
288.0000	2.02188	-0.000962201	0.443778	300.108
287.5000	2.03586	-0.000932503	0.446846	300.487
287.0000	2.15967	-0.000901524	0.449952	300.91
286.5000	2.09633	-0.000859365	0.452683	301.318
286.0000	1.95408	-0.000829806	0.455524	301.7
285.5000	1.84627	-0.000787302	0.458676	302.063
285.0000	1.51745	-0.000780984	0.461933	302.441
284.5000	1.35636	-0.000745572	0.465028	302.805
284.0000	1.27424	-0.000717053	0.468416	303.197
283.5000	1.30707	-0.00068003	0.472176	303.613
283.0000	1.18641	-0.000642818	0.475801	304.02
282.5000	1.29383	-0.000601276	0.479789	304.462
282.0000	1.36626	-0.000567769	0.48363	304.921
281.5000	1.47347	-0.00055088	0.487493	305.386
281.0000	1.54223	-0.000532076	0.491725	305.868
280.5000	1.46087	-0.000499686	0.496201	306.398
280.0000	1.51169	-0.000454224	0.500918	306.949
279.5000	1.61387	-0.000436454	0.50592	307.54
279.0000	1.31839	-0.000419843	0.510691	308.116
278.5000	1.30448	-0.000386332	0.516148	308.757
278.0000	1.19649	-0.000350726	0.522559	309.455
277.5000	1.25143	-0.000308789	0.528711	310.126
277.0000	1.43569	-0.000286562	0.535433	310.885
276.5000	1.40437	-0.000245243	0.542377	311.682
276.0000	1.32221	-0.000213885	0.548953	312.429
275.5000	1.23262	-0.000184855	0.55705	313.313
275.0000	1.3392	-0.000152671	0.565445	314.236
274.5000	1.41779	-0.00013294	0.574157	315.215
274.0000	1.36814	-8.71099E-005	0.583618	316.305
273.5000	1.10261	-6.78844E-005	0.592927	317.342
273.0000	0.947309	-2.12739E-005	0.603219	318.484
272.5000	0.716899	2.05994E-005	0.614093	319.698
272.0000	0.885056	5.53839E-005	0.625481	320.986
271.5000	0.95327	0.000100061	0.638059	322.411
271.0000	1.00765	0.000151114	0.651014	323.844
270.5000	1.21458	0.000188219	0.664905	325.364
270.0000	1.42701	0.000218278	0.679147	326.961
269.5000	1.30405	0.000239592	0.693965	328.661
269.0000	1.33536	0.000273153	0.708948	330.368
268.5000	1.18541	0.000316613	0.725705	332.268
268.0000	1.31529	0.000339834	0.743426	334.27
267.5000	1.22744	0.000349587	0.762038	336.386
267.0000	0.986967	0.00035335	0.782052	338.707
266.5000	0.964548	0.000362498	0.80284	341.147
266.0000	0.809418	0.000395988	0.822934	343.463
265.5000	0.725417	0.000410792	0.845007	345.988
265.0000	0.884584	0.000444353	0.868783	348.766
264.5000	0.869538	0.000453807	0.891766	351.492
264.0000	0.505863	0.000472588	0.915328	354.303
263.5000	0.771675	0.000480102	0.940918	357.34
263.0000	0.637672	0.000479651	0.96459	360.169
262.5000	0.517856	0.000489478	0.990867	363.37
262.0000	0.244217	0.000494612	1.01605	366.502
261.5000	0.312907	0.000466678	1.04202	369.716
261.0000	0.281906	0.000461576	1.06761	372.851
260.5000	0.123972	0.000483224	1.09501	376.246
260.0000	0.269013	0.000499893	1.12298	379.752
259.5000	-0.219931	0.00043455	1.15182	383.404
259.0000	-0.662547	0.000415193	1.18126	387.185
258.5000	-0.327893	0.000401036	1.21202	391.116
258.0000	0.15729	0.000427411	1.24407	395.235
257.5000	-0.00892192	0.000419208	1.27557	399.308
257.0000	0.268708	0.000374071	1.31003	403.796
256.5000	-0.320425	0.000352997	1.34429	408.28
256.0000	-0.853674	0.000362458	1.38223	413.257
255.5000	-0.719111	0.000349569	1.42197	418.496
255.0000	-1.1644	0.000347454	1.46344	424.021
254.5000	-1.57664	0.000313885	1.50453	429.547
254.0000	-2.10552	0.000244639	1.54756	435.375
253.5000	-2.50155	0.000185993	1.5978	442.182
253.0000	-3.84887	0.00018537	1.64508	448.687
252.5000	-3.02838	0.000164029	1.71799	458.909
252.0000	-3.58392	5.95913E-005	1.78124	467.893
251.5000	-2.33281	8.24449E-005	1.83859	476.128
251.0000	-2.47929	3.32554E-005	1.8985	484.795
250.5000	-4.15654	-4.91959E-006	1.96044	493.913
250.0000	-5.21421	-3.12402E-005	2.02114	502.998
249.5000	-6.02521	-0.000118149	2.08379	512.519
249.0000	-7.67504	-0.000103775	2.15211	523.049
248.5000	-7.1507	-0.000200943	2.2192	533.523
248.0000	-7.38088	-0.000307998	2.29194	545.076
247.5000	-9.63268	-0.00057119	2.36305	556.59
247.0000	-11.3278	-0.000715885	2.44023	569.324
246.5000	-11.1594	-0.000837923	2.52008	582.715
246.0000	-12.2072	-0.000890917	2.60232	596.745
245.5000	-9.80373	-0.000880717	2.69033	612.143
245.0000	-7.56536	-0.000806604	2.7802	628.205
244.5000	-8.40988	-0.000795581	2.87167	644.9
244.0000	-10.0596	-0.000758741	2.96353	662.08
243.5000	-12.6074	-0.000813539	3.05089	678.817
243.0000	-11.6475	-0.000695431	3.13724	695.777
242.5000	-11.5752	-0.00052366	3.23056	714.559
242.0000	-7.95659	-0.000672955	3.30884	730.691
241.5000	-5.4204	-0.000297542	3.39221	748.264
241.0000	-3.22814	-0.000504091	3.46405	763.759
240.5000	-3.03255	-0.000294294	3.5385	780.278
240.0000	-1.32072	-0.000184184	3.60156	794.594
239.5000	1.04136	1.53343E-005	3.66874	810.219
239.0000	4.88011	0.0001468	3.72169	822.804
238.5000	7.88081	0.000170989	3.77184	835.037
238.0000	9.08012	0.00011535	3.81804	846.704
237.5000	9.21443	0.000166661	3.85413	856.153
237.0000	10.0647	0.000199205	3.88653	864.952
236.5000	10.0864	9.1351E-005	3.91338	872.586
236.0000	10.0929	0.000247116	3.93413	878.803
235.5000	12.7542	0.000300446	3.95236	884.795
235.0000	13.9923	0.000481879	3.96162	888.191
234.5000	11.8628	0.000339879	3.96901	891.247
234.0000	10.7325	0.000438474	3.97429	893.902
233.5000	9.84077	0.000504147	3.97745	896.215
233.0000	5.31657	0.000671723	3.97801	898.034
232.5000	3.29285	0.000528606	3.97632	899.337
232.0000	2.8208	0.000899688	3.97212	900.407
231.5000	-0.565659	0.000675464	3.9673	901.035
231.0000	-4.38294	0.000827447	3.96095	901.544
230.5000	-4.77693	0.000865503	3.95337	901.874
230.0000	-5.0497	0.000918392	3.94523	902.085
229.5000	-5.05116	0.00107079	3.93636	902.253
229.0000	-5.58515	0.00108419	3.92697	902.364
228.5000	-9.75832	0.00106133	3.91751	902.448
228.0000	-4.77367	0.00140439	3.90841	902.533
227.5000	-1.37541	0.00134622	3.89818	902.61
227.0000	-2.73574	0.00135968	3.8877	902.663
226.5000	-6.30298	0.00107373	3.87639	902.664
226.0000	-5.95104	0.0012646	3.86578	902.653
225.5000	-4.27421	0.00116591	3.85452	902.683
225.0000	-1.57789	0.00114402	3.84255	902.689
224.5000	-2.42944	0.00115995	3.83021	902.683
224.0000	-2.23903	0.00100994	3.818	902.694
223.5000	1.25134	0.000940765	3.80606	902.703
223.0000	4.75511	0.000934807	3.79433	902.722
222.5000	5.08321	0.00109932	3.77988	902.768
222.0000	2.06913	0.00135599	3.76655	902.798
221.5000	0.146128	0.0015188	3.75263	902.86
221.0000	-1.23833	0.00142395	3.74045	902.851
220.5000	1.44822	0.00138151	3.72819	902.85
220.0000	2.25375	0.00130507	3.71531	902.87

##### Extended Information
[Comments]
Sample name	JS187+JS190_5E-5_H2O_44-56_100EQDT+72H
Comment
User
Division
Company	Labo systeme complexes hors equilibre

[Detailed Information]
Creation date	1/26/2024 11:18 AM

Data array type	Linear data array * 4
Horizontal axis	Wavelength [nm]
Vertical axis(1)	CD [mdeg]
Vertical axis(2)	LD [dOD]
Vertical axis(3)	Abs
Vertical axis(4)	HT [V]
Start	700 nm
End	220 nm
Data interval	0.5 nm
Data points	961     

[Measurement Information]
Instrument name	CD Jasco
Model name	J-1500
Serial No.	A005261638

Detector	PM-539
Detector S/N	A0052PM539
  Lock-in amp.	X mode
  HT volt	Auto

Detector	EXPML-535
Detector S/N	A0001
  Lock-in amp.	X mode
  HT volt	Auto

Measurement date	1/26/2024 11:18 AM

Overload detect	1
Photometric mode	CD, LD, Abs, HT
Measure range	700 - 220 nm
Data pitch	0.5 nm
CD scale	200 mdeg/1.0 dOD
FL scale	200 mdeg/1.0 dOD
D.I.T.	1 sec
Bandwidth	1.00 nm
Start mode	Immediately
Scanning speed	500 nm/min
Baseline correction	Baseline
Shutter control	Auto


