TITLE	JS187+JS190_5E-5_H2O_30-70_100EQDT+72H
DATA TYPE	
ORIGIN	JASCO
OWNER	
DATE	24/01/26
TIME	11:13:34
SPECTROMETER/DATA SYSTEM	
LOCALE	1033
RESOLUTION	
DELTAX	-0.5
XUNITS	NANOMETERS
YUNITS	CD [mdeg]
Y2UNITS	LD [dOD]
Y3UNITS	ABSORBANCE
Y4UNITS	HT [V]
FIRSTX	  700.0000
LASTX	  220.0000
NPOINTS	     961
FIRSTY	     1.79609
MAXY	    15.42319
MINY	   -25.54617
XYDATA
700.0000	1.79609	-0.000174886	0.00466583	304.792
699.5000	1.50505	-0.000199832	0.00392528	304.516
699.0000	1.29044	-0.00019351	0.00320335	304.197
698.5000	1.43441	-0.000174864	0.00293241	303.835
698.0000	1.46082	-0.000171293	0.00231361	303.441
697.5000	1.31479	-0.000157346	0.00120817	303.027
697.0000	1.31689	-0.000132349	7.72715E-006	302.585
696.5000	1.41242	-0.000135346	-0.000675977	302.109
696.0000	1.13918	-0.000135336	-0.000566742	301.591
695.5000	1.2078	-0.000133685	-0.000488104	301.072
695.0000	1.01838	-0.000139168	-5.63758E-005	300.588
694.5000	0.897742	-0.000152417	0.000247185	300.112
694.0000	0.878294	-0.000146974	0.00141833	299.642
693.5000	0.779216	-0.000154405	0.0026959	299.187
693.0000	0.704974	-0.000155167	0.00466168	298.795
692.5000	0.517028	-0.000151129	0.00664953	298.429
692.0000	0.565741	-0.000127409	0.00872596	298.111
691.5000	0.654404	-0.00014761	0.0110908	297.831
691.0000	0.85358	-0.000146545	0.0132897	297.554
690.5000	0.773003	-0.000140534	0.0148517	297.321
690.0000	0.766612	-0.000154137	0.0161153	297.109
689.5000	0.609354	-0.000154561	0.0174375	296.925
689.0000	0.522153	-0.000156438	0.0190737	296.754
688.5000	0.667954	-0.000152723	0.0205943	296.652
688.0000	0.475846	-0.00013974	0.022686	296.631
687.5000	0.281832	-0.000143225	0.0252971	296.707
687.0000	0.275244	-0.000140806	0.0277799	296.849
686.5000	0.183327	-0.000148321	0.0298035	297.038
686.0000	0.295297	-0.000168882	0.0307522	297.259
685.5000	0.661077	-0.00016542	0.0309796	297.515
685.0000	0.615562	-0.000178827	0.0308321	297.771
684.5000	0.581596	-0.000178246	0.030146	298.02
684.0000	0.978525	-0.000176645	0.0288041	298.245
683.5000	0.721068	-0.000183001	0.0279371	298.476
683.0000	0.627409	-0.00016303	0.02696	298.71
682.5000	0.278516	-0.000180979	0.0263759	298.936
682.0000	0.595786	-0.00018402	0.0257536	299.196
681.5000	0.672987	-0.000194901	0.0257483	299.467
681.0000	0.869287	-0.000185076	0.0258703	299.763
680.5000	0.951272	-0.000193043	0.0260099	300.037
680.0000	0.940886	-0.000195146	0.0250967	300.28
679.5000	1.05966	-0.00019275	0.0234991	300.452
679.0000	1.11588	-0.000183826	0.0207207	300.558
678.5000	1.32956	-0.000183169	0.0190547	300.634
678.0000	1.4106	-0.000170746	0.0174375	300.676
677.5000	1.36609	-0.000148724	0.0163167	300.673
677.0000	1.29356	-0.000137621	0.0157134	300.647
676.5000	1.52875	-0.000133521	0.0159273	300.628
676.0000	1.47535	-0.000124882	0.0161533	300.606
675.5000	1.53006	-0.000130616	0.0162636	300.573
675.0000	1.54329	-0.000141452	0.0167978	300.566
674.5000	1.64898	-0.000146969	0.0177341	300.567
674.0000	1.54174	-0.000122314	0.0186544	300.568
673.5000	1.57298	-0.000125719	0.0194403	300.557
673.0000	1.38953	-0.000111858	0.0193403	300.556
672.5000	1.26101	-0.000105794	0.0193746	300.579
672.0000	1.43275	-9.65394E-005	0.0198627	300.622
671.5000	1.31439	-8.38355E-005	0.0208106	300.665
671.0000	1.13146	-8.9703E-005	0.0217987	300.715
670.5000	1.19424	-8.05876E-005	0.0229487	300.763
670.0000	1.24588	-4.10106E-005	0.0238897	300.814
669.5000	1.41678	-2.91572E-005	0.0242483	300.863
669.0000	1.38578	-3.17688E-005	0.0248146	300.93
668.5000	1.42061	-4.02438E-005	0.0254107	301.004
668.0000	1.35716	-5.93911E-005	0.0257992	301.09
667.5000	1.2167	-7.46667E-005	0.0260229	301.178
667.0000	1.23682	-5.98568E-005	0.0260615	301.275
666.5000	1.11898	-7.08933E-005	0.0259245	301.355
666.0000	1.22676	-5.9667E-005	0.0251156	301.446
665.5000	1.09265	-7.83428E-005	0.024881	301.552
665.0000	1.26134	-7.49119E-005	0.0255266	301.666
664.5000	1.4938	-7.33848E-005	0.0264686	301.778
664.0000	1.52938	-6.41473E-005	0.026547	301.874
663.5000	1.49357	-6.67949E-005	0.0255324	301.959
663.0000	1.8956	-6.97858E-005	0.0252828	302.036
662.5000	1.98585	-5.49952E-005	0.0249984	302.115
662.0000	1.97499	-8.55208E-005	0.0244352	302.163
661.5000	1.55811	-0.000105579	0.0245332	302.211
661.0000	1.37603	-0.000123531	0.0243131	302.255
660.5000	1.48778	-0.00011051	0.0236352	302.263
660.0000	1.89635	-0.00010993	0.0233541	302.275
659.5000	1.95806	-8.87496E-005	0.0225635	302.27
659.0000	1.96468	-7.79482E-005	0.0219698	302.247
658.5000	1.91466	-7.63387E-005	0.0215818	302.211
658.0000	1.8528	-8.82545E-005	0.0216956	302.17
657.5000	2.07068	-8.83069E-005	0.0210712	302.094
657.0000	2.03427	-8.64123E-005	0.0215381	302.019
656.5000	1.94389	-9.11912E-005	0.0205838	301.892
656.0000	1.86074	-0.000102002	0.0196638	301.744
655.5000	2.25256	-0.000110643	0.0202331	301.586
655.0000	2.11873	-0.000103539	0.0200138	301.406
654.5000	2.08841	-0.000105691	0.0191322	301.211
654.0000	1.9276	-0.00012302	0.0190056	301.011
653.5000	2.14169	-0.000112407	0.0196713	300.827
653.0000	2.25595	-0.000103694	0.0203702	300.627
652.5000	2.04122	-8.70223E-005	0.0210328	300.451
652.0000	2.01479	-8.6764E-005	0.0220774	300.32
651.5000	1.74588	-7.42058E-005	0.0235302	300.209
651.0000	1.51021	-0.000103839	0.0255751	300.138
650.5000	1.66685	-9.77466E-005	0.0267823	300.085
650.0000	1.89948	-8.90155E-005	0.0284487	300.06
649.5000	1.94417	-6.93072E-005	0.0295059	300.052
649.0000	2.04056	-5.17289E-005	0.0308268	300.069
648.5000	2.1666	-5.80307E-005	0.0312568	300.112
648.0000	2.32967	-4.32713E-005	0.0322914	300.202
647.5000	2.06535	-3.03806E-005	0.0332178	300.308
647.0000	1.99282	-2.94196E-005	0.0337144	300.446
646.5000	1.96305	-4.14867E-005	0.0341873	300.602
646.0000	2.02729	-4.43529E-005	0.0354628	300.752
645.5000	2.04738	-3.16309E-005	0.0359921	300.905
645.0000	1.89064	-2.3967E-005	0.0354636	301.052
644.5000	2.113	-2.16779E-005	0.0352577	301.183
644.0000	2.14	-1.68498E-005	0.0352636	301.297
643.5000	2.24511	-3.16905E-005	0.0347926	301.377
643.0000	2.48582	-2.05595E-005	0.0342254	301.42
642.5000	2.52697	-1.36467E-005	0.0338252	301.45
642.0000	2.56249	8.22256E-006	0.0335307	301.454
641.5000	2.56429	-8.41358E-006	0.0333319	301.458
641.0000	2.31522	-1.91976E-005	0.0333224	301.434
640.5000	2.22598	-3.85617E-006	0.0336053	301.387
640.0000	2.01797	-1.31092E-005	0.0341991	301.336
639.5000	2.26539	-1.85233E-005	0.0348883	301.251
639.0000	2.13996	-2.14269E-005	0.0353941	301.165
638.5000	2.07583	-3.28608E-005	0.0363483	301.068
638.0000	2.07672	-1.6017E-005	0.036876	300.985
637.5000	2.27741	3.00394E-006	0.0370481	300.885
637.0000	2.48332	3.94499E-006	0.0381074	300.785
636.5000	2.51956	2.74659E-006	0.0389154	300.69
636.0000	2.71868	-1.71749E-005	0.0391266	300.605
635.5000	2.91837	-8.61973E-006	0.0394588	300.524
635.0000	2.77329	5.27011E-006	0.0402612	300.451
634.5000	2.76753	-6.96297E-006	0.0408947	300.376
634.0000	2.62291	-8.26012E-007	0.0414424	300.304
633.5000	2.68082	-1.02559E-005	0.0417357	300.247
633.0000	2.79605	-2.39647E-006	0.0424943	300.188
632.5000	2.68468	-8.86016E-006	0.0426753	300.135
632.0000	2.7898	-2.23825E-005	0.0428163	300.078
631.5000	2.87924	-1.70247E-005	0.0433286	300.029
631.0000	2.97121	1.28008E-005	0.0439108	299.991
630.5000	3.07813	2.43439E-005	0.0444211	299.948
630.0000	2.85981	3.26828E-005	0.045021	299.906
629.5000	2.91079	2.6778E-005	0.0457549	299.863
629.0000	2.89597	3.10347E-005	0.0462348	299.819
628.5000	2.96597	2.22245E-005	0.0465549	299.779
628.0000	2.85308	3.52693E-005	0.0469555	299.72
627.5000	2.72499	4.97545E-005	0.0478404	299.675
627.0000	2.41606	3.64769E-005	0.0482856	299.636
626.5000	2.52072	3.30758E-005	0.0483822	299.595
626.0000	2.34598	2.29527E-005	0.0484723	299.544
625.5000	2.42317	3.02087E-005	0.0492715	299.502
625.0000	2.38735	2.55225E-005	0.0500498	299.451
624.5000	2.37259	1.05791E-005	0.0508717	299.407
624.0000	2.36139	3.49593E-005	0.051721	299.386
623.5000	2.32008	4.48485E-005	0.0525726	299.37
623.0000	2.0376	3.39827E-005	0.0534912	299.376
622.5000	2.1269	3.80802E-005	0.0545234	299.39
622.0000	2.05894	3.56291E-005	0.0552511	299.411
621.5000	2.16982	2.00916E-005	0.0559727	299.439
621.0000	2.27986	1.24522E-005	0.0569053	299.491
620.5000	2.10537	9.43592E-006	0.0573574	299.533
620.0000	2.07135	1.41848E-006	0.0578589	299.604
619.5000	1.9878	1.38644E-005	0.058783	299.704
619.0000	1.95234	-4.6091E-006	0.0598518	299.793
618.5000	2.0867	4.70331E-006	0.061391	299.901
618.0000	2.16109	6.36849E-006	0.0630403	300.021
617.5000	2.23992	-2.79022E-006	0.0637574	300.156
617.0000	2.03461	1.18149E-005	0.0641629	300.293
616.5000	2.24076	1.10062E-006	0.0648185	300.449
616.0000	2.55487	1.34119E-005	0.065797	300.593
615.5000	2.55386	2.68395E-006	0.0663309	300.733
615.0000	2.89067	1.46141E-005	0.0668403	300.879
614.5000	2.94828	1.08733E-005	0.0670946	301.017
614.0000	2.93211	-3.65609E-006	0.0673179	301.149
613.5000	3.06254	3.10911E-006	0.0678152	301.286
613.0000	2.88493	2.4994E-005	0.0681687	301.425
612.5000	2.92196	3.41142E-005	0.0687798	301.578
612.0000	3.05842	3.98313E-005	0.0694402	301.725
611.5000	3.02461	4.12931E-005	0.070201	301.852
611.0000	3.02637	4.77633E-005	0.0706472	301.998
610.5000	3.06471	5.16409E-005	0.0709907	302.141
610.0000	3.00921	5.85088E-005	0.0710053	302.26
609.5000	2.78724	6.79476E-005	0.0716726	302.38
609.0000	2.61829	6.38837E-005	0.0723066	302.494
608.5000	2.59985	5.86198E-005	0.0731994	302.597
608.0000	2.47619	7.58164E-005	0.0736846	302.691
607.5000	2.29984	5.78968E-005	0.0736729	302.777
607.0000	2.38856	3.7609E-005	0.0740821	302.869
606.5000	2.13873	1.35361E-005	0.0746925	302.966
606.0000	2.17551	2.08925E-005	0.0759762	303.061
605.5000	1.81975	1.46878E-005	0.076928	303.154
605.0000	1.7628	1.84147E-007	0.0780613	303.229
604.5000	1.68564	-5.13765E-006	0.0788759	303.296
604.0000	1.41824	-1.69521E-005	0.079957	303.362
603.5000	1.52293	-2.38009E-005	0.0812382	303.43
603.0000	1.67015	-9.2906E-006	0.0820861	303.496
602.5000	1.69451	-2.17927E-005	0.0835037	303.57
602.0000	2.00656	-2.02315E-005	0.084891	303.624
601.5000	2.23445	-3.0331E-005	0.0863032	303.694
601.0000	2.21666	-3.02875E-005	0.0876352	303.755
600.5000	2.33322	-2.01528E-005	0.0894157	303.806
600.0000	2.29009	-3.81037E-005	0.090783	303.842
599.5000	2.32221	-2.27689E-005	0.0931127	303.885
599.0000	2.20744	-7.16148E-006	0.0949019	303.91
598.5000	2.04676	1.58265E-005	0.0971683	303.923
598.0000	2.10067	3.96328E-005	0.0990037	303.934
597.5000	2.18059	5.08901E-005	0.100662	303.946
597.0000	2.34932	5.36318E-005	0.102717	303.968
596.5000	2.368	5.33242E-005	0.104814	303.969
596.0000	2.53741	8.77104E-005	0.107008	303.973
595.5000	2.40744	7.00106E-005	0.109035	303.977
595.0000	2.13941	5.8254E-005	0.111173	303.953
594.5000	2.0639	6.79092E-005	0.11347	303.944
594.0000	1.80619	7.01116E-005	0.115272	303.94
593.5000	1.5397	6.9875E-005	0.117433	303.916
593.0000	1.68912	6.19643E-005	0.120132	303.91
592.5000	1.77713	7.33539E-005	0.122361	303.926
592.0000	1.62878	8.60868E-005	0.124627	303.968
591.5000	1.40957	6.40893E-005	0.126398	303.991
591.0000	1.26043	7.22776E-005	0.128829	304.033
590.5000	1.30125	6.3558E-005	0.131122	304.102
590.0000	1.1848	4.16633E-005	0.133647	304.184
589.5000	1.16085	3.01066E-005	0.136344	304.268
589.0000	0.879316	2.75895E-005	0.138993	304.352
588.5000	0.728696	1.35901E-005	0.141724	304.468
588.0000	0.449513	1.12447E-006	0.144792	304.603
587.5000	0.183069	-1.08036E-006	0.147897	304.756
587.0000	0.193934	-1.17921E-005	0.151158	304.961
586.5000	-0.152636	-3.20275E-005	0.154207	305.154
586.0000	-0.543138	-3.26567E-005	0.157925	305.361
585.5000	-0.734926	-3.97534E-005	0.161328	305.59
585.0000	-0.96139	-2.54502E-005	0.164657	305.828
584.5000	-0.996462	-2.91928E-005	0.167949	306.064
584.0000	-1.49482	-4.9236E-005	0.171805	306.33
583.5000	-1.69317	-4.95544E-005	0.175919	306.618
583.0000	-1.8621	-5.67548E-005	0.180626	306.942
582.5000	-2.2833	-6.44133E-005	0.185153	307.288
582.0000	-2.66546	-5.23023E-005	0.189617	307.624
581.5000	-2.91547	-1.11945E-005	0.194533	308.009
581.0000	-3.35702	-1.9154E-005	0.199776	308.401
580.5000	-3.40408	-8.63466E-006	0.205104	308.807
580.0000	-3.78971	-2.87627E-006	0.210305	309.22
579.5000	-4.16287	2.45075E-005	0.215529	309.651
579.0000	-4.23323	5.15859E-005	0.220844	310.079
578.5000	-4.84554	6.03539E-005	0.226728	310.522
578.0000	-5.17206	7.18567E-005	0.232695	311.004
577.5000	-5.74991	7.15345E-005	0.238529	311.53
577.0000	-6.42793	9.09931E-005	0.245224	312.054
576.5000	-7.14678	9.64349E-005	0.252488	312.628
576.0000	-7.70994	0.0001045	0.259669	313.202
575.5000	-8.39672	0.00012021	0.267276	313.803
575.0000	-8.92935	0.000129977	0.274016	314.376
574.5000	-9.45638	0.000144015	0.281739	315.015
574.0000	-9.91694	0.000145166	0.289538	315.634
573.5000	-10.6795	0.000136228	0.297516	316.283
573.0000	-11.6268	0.000131201	0.30545	316.975
572.5000	-12.3917	0.000119851	0.312962	317.635
572.0000	-13.2957	0.000115549	0.32157	318.409
571.5000	-14.0348	0.000105826	0.330291	319.173
571.0000	-14.9592	8.12453E-005	0.339943	319.973
570.5000	-15.6493	7.25155E-005	0.349494	320.817
570.0000	-16.0844	6.43112E-005	0.358679	321.639
569.5000	-16.8129	6.55498E-005	0.368908	322.503
569.0000	-17.6855	6.80729E-005	0.379112	323.362
568.5000	-18.5453	4.35739E-005	0.388357	324.193
568.0000	-19.2118	3.28595E-005	0.397702	325.063
567.5000	-19.8607	4.41239E-005	0.407068	325.928
567.0000	-20.7476	1.88262E-005	0.416385	326.753
566.5000	-21.3685	-1.42785E-005	0.425675	327.558
566.0000	-22.0563	-3.34297E-005	0.434896	328.358
565.5000	-22.6101	-4.51685E-005	0.443511	329.133
565.0000	-22.9532	-7.23036E-005	0.452339	329.896
564.5000	-23.3919	-7.36534E-005	0.461114	330.649
564.0000	-23.8126	-8.6014E-005	0.46933	331.318
563.5000	-24.2278	-7.34835E-005	0.476886	331.956
563.0000	-24.4097	-7.01004E-005	0.4844	332.619
562.5000	-24.8447	-7.9459E-005	0.491472	333.218
562.0000	-25.1979	-8.66953E-005	0.498209	333.778
561.5000	-25.5462	-0.000103088	0.505517	334.346
561.0000	-25.4283	-0.000102416	0.511872	334.86
560.5000	-25.2731	-9.42107E-005	0.517781	335.339
560.0000	-25.0201	-7.30996E-005	0.523739	335.797
559.5000	-24.9323	-8.2242E-005	0.529464	336.187
559.0000	-24.844	-8.25919E-005	0.53428	336.509
558.5000	-24.5634	-7.5909E-005	0.538303	336.787
558.0000	-24.3258	-6.64263E-005	0.541539	336.995
557.5000	-23.7858	-5.58222E-005	0.544801	337.173
557.0000	-23.6727	-7.14214E-005	0.54777	337.306
556.5000	-22.8369	-5.55296E-005	0.549722	337.384
556.0000	-22.1451	-4.89031E-005	0.550927	337.438
555.5000	-21.7714	-7.5563E-005	0.552013	337.445
555.0000	-21.1518	-0.000105051	0.552945	337.417
554.5000	-20.7573	-0.000136818	0.553671	337.327
554.0000	-20.171	-0.000149994	0.553542	337.208
553.5000	-19.5577	-0.000141079	0.55303	337.048
553.0000	-19.41	-0.000160287	0.552284	336.874
552.5000	-19.0789	-0.000186059	0.551932	336.689
552.0000	-18.5253	-0.000229134	0.551	336.439
551.5000	-18.0615	-0.000231845	0.549882	336.183
551.0000	-17.7611	-0.000233397	0.548329	335.925
550.5000	-17.4654	-0.000253886	0.546695	335.642
550.0000	-17.0844	-0.000234721	0.545072	335.332
549.5000	-16.6953	-0.000242443	0.543597	335.019
549.0000	-16.0293	-0.000236556	0.541536	334.707
548.5000	-15.696	-0.000241669	0.539425	334.402
548.0000	-15.9843	-0.000247907	0.538334	334.079
547.5000	-15.82	-0.000241974	0.537252	333.782
547.0000	-15.6509	-0.000213826	0.536133	333.46
546.5000	-15.3328	-0.000179	0.534694	333.169
546.0000	-15.1337	-0.000153849	0.532669	332.89
545.5000	-14.9573	-0.000154722	0.531741	332.613
545.0000	-14.9824	-0.000160829	0.530941	332.396
544.5000	-14.781	-0.000145919	0.530059	332.16
544.0000	-14.9621	-0.000130865	0.528943	331.945
543.5000	-15.0636	-0.00011239	0.528278	331.764
543.0000	-15.0711	-0.000120205	0.527887	331.594
542.5000	-15.1359	-0.000120333	0.527973	331.444
542.0000	-14.9799	-8.388E-005	0.527899	331.313
541.5000	-15.3094	-0.000102068	0.52816	331.234
541.0000	-15.7246	-0.000110091	0.528443	331.181
540.5000	-16.0115	-0.000105221	0.52954	331.137
540.0000	-15.805	-9.25701E-005	0.530774	331.092
539.5000	-15.7477	-7.46564E-005	0.531922	331.09
539.0000	-15.9454	-9.69243E-005	0.533044	331.121
538.5000	-16.2031	-0.000105513	0.534565	331.172
538.0000	-16.7214	-0.000138712	0.53662	331.235
537.5000	-17.0994	-0.000142639	0.538997	331.342
537.0000	-17.5368	-0.000133812	0.541187	331.451
536.5000	-17.7614	-0.000121931	0.543834	331.593
536.0000	-18.0457	-0.000143226	0.546969	331.766
535.5000	-18.0881	-0.000135153	0.550119	331.95
535.0000	-18.3419	-0.000108659	0.553702	332.16
534.5000	-18.6253	-0.000113093	0.557028	332.356
534.0000	-18.8906	-0.000141727	0.560751	332.596
533.5000	-19.1001	-0.000134441	0.56446	332.857
533.0000	-19.5174	-0.00015161	0.567926	333.104
532.5000	-19.8276	-0.000161624	0.571665	333.385
532.0000	-20.1922	-0.000184099	0.57578	333.691
531.5000	-20.4446	-0.000204029	0.580153	334.01
531.0000	-20.8432	-0.000203433	0.585242	334.339
530.5000	-20.624	-0.000180723	0.589839	334.66
530.0000	-20.9704	-0.000178823	0.594469	335
529.5000	-20.6557	-0.000165952	0.599119	335.344
529.0000	-20.5471	-0.000170311	0.603727	335.655
528.5000	-20.3007	-0.000173635	0.608277	335.983
528.0000	-19.8112	-0.000175207	0.612712	336.302
527.5000	-19.7244	-0.000171428	0.61724	336.605
527.0000	-19.6833	-0.000192258	0.622173	336.935
526.5000	-19.577	-0.00019559	0.626518	337.242
526.0000	-19.1733	-0.000196758	0.631339	337.565
525.5000	-18.9623	-0.000201428	0.636002	337.871
525.0000	-18.7241	-0.000200379	0.640449	338.159
524.5000	-18.0752	-0.000183412	0.644804	338.426
524.0000	-17.6395	-0.000178402	0.648732	338.656
523.5000	-17.5004	-0.000168207	0.652511	338.903
523.0000	-16.7525	-0.000183265	0.656045	339.125
522.5000	-16.0962	-0.000184706	0.659267	339.343
522.0000	-15.4027	-0.000186673	0.662717	339.556
521.5000	-14.9877	-0.000184559	0.666417	339.771
521.0000	-14.6655	-0.000189215	0.669607	339.954
520.5000	-14.294	-0.000187806	0.672794	340.138
520.0000	-13.8202	-0.000199009	0.675583	340.292
519.5000	-13.5299	-0.000220037	0.67854	340.435
519.0000	-13.129	-0.000241467	0.681125	340.567
518.5000	-12.2007	-0.00025533	0.683428	340.703
518.0000	-11.4223	-0.000277143	0.68618	340.85
517.5000	-11.0195	-0.000289649	0.688863	340.982
517.0000	-10.3783	-0.000300234	0.691686	341.104
516.5000	-9.902	-0.000314375	0.694696	341.242
516.0000	-9.25374	-0.000318877	0.697391	341.37
515.5000	-8.82766	-0.00032251	0.699734	341.51
515.0000	-8.25892	-0.000322808	0.701952	341.626
514.5000	-7.95153	-0.000333791	0.704135	341.752
514.0000	-7.45888	-0.000351828	0.706145	341.851
513.5000	-7.12404	-0.000375987	0.708428	341.97
513.0000	-6.2059	-0.000380166	0.710371	342.09
512.5000	-5.95547	-0.000405883	0.712881	342.244
512.0000	-5.53653	-0.000416177	0.715204	342.372
511.5000	-5.07754	-0.000425535	0.717135	342.497
511.0000	-4.63527	-0.000405166	0.719182	342.618
510.5000	-4.61912	-0.000394191	0.721441	342.734
510.0000	-4.34197	-0.000385078	0.723656	342.849
509.5000	-4.02826	-0.000372197	0.725702	342.962
509.0000	-3.64255	-0.000381649	0.727489	343.061
508.5000	-3.1821	-0.000394612	0.729056	343.127
508.0000	-2.87691	-0.000397007	0.730847	343.183
507.5000	-2.7135	-0.000406185	0.7324	343.204
507.0000	-2.48038	-0.000396942	0.734323	343.259
506.5000	-2.18692	-0.000399354	0.736083	343.302
506.0000	-2.24808	-0.000407816	0.737382	343.338
505.5000	-1.98115	-0.000403561	0.738697	343.375
505.0000	-2.1366	-0.000431385	0.739863	343.388
504.5000	-1.65968	-0.000438342	0.740977	343.382
504.0000	-1.35	-0.00043987	0.741723	343.343
503.5000	-1.04042	-0.000443584	0.742422	343.305
503.0000	-0.688328	-0.000423174	0.742944	343.231
502.5000	-0.281002	-0.000432651	0.743167	343.146
502.0000	0.0644459	-0.000430138	0.743108	343.039
501.5000	0.182986	-0.000443277	0.742866	342.892
501.0000	0.481855	-0.000428259	0.742624	342.734
500.5000	0.676892	-0.000410843	0.742375	342.549
500.0000	0.994394	-0.000413273	0.741865	342.321
499.5000	1.38401	-0.000407063	0.740519	342.029
499.0000	1.87486	-0.00043939	0.738897	341.639
498.5000	2.04233	-0.000459211	0.736926	341.132
498.0000	2.32607	-0.000453333	0.734662	340.508
497.5000	2.29535	-0.000486272	0.732507	339.733
497.0000	2.5616	-0.000497007	0.730845	338.917
496.5000	3.39609	-0.000464836	0.729315	338.045
496.0000	3.64007	-0.000468069	0.728708	337.323
495.5000	4.16795	-0.000445104	0.728359	336.759
495.0000	4.51316	-0.000448938	0.727326	336.337
494.5000	4.45908	-0.000468171	0.725733	335.964
494.0000	4.90792	-0.000470347	0.723861	335.606
493.5000	5.50953	-0.00046715	0.72176	335.224
493.0000	6.04526	-0.000494434	0.719801	334.869
492.5000	6.40987	-0.000514517	0.71779	334.511
492.0000	6.83071	-0.000538441	0.715396	334.129
491.5000	7.10362	-0.000544882	0.713041	333.795
491.0000	7.39109	-0.000540049	0.710925	333.486
490.5000	7.96161	-0.000527825	0.708878	333.221
490.0000	8.47787	-0.000525801	0.706811	333.004
489.5000	9.0481	-0.000527378	0.7047	332.844
489.0000	9.43994	-0.000505427	0.702334	332.685
488.5000	9.84731	-0.000511845	0.699513	332.495
488.0000	10.4863	-0.000531277	0.695833	332.147
487.5000	10.7488	-0.000552448	0.691508	331.577
487.0000	11.3725	-0.000533642	0.688044	330.903
486.5000	11.5139	-0.000541708	0.684278	330.08
486.0000	12.1206	-0.000537225	0.680879	329.248
485.5000	12.4317	-0.00055468	0.678446	328.403
485.0000	12.5839	-0.000553364	0.676713	327.631
484.5000	12.6697	-0.000549082	0.674782	327.015
484.0000	13.081	-0.00055015	0.672387	326.485
483.5000	13.2915	-0.000547211	0.670065	326.045
483.0000	13.6707	-0.000547911	0.667276	325.64
482.5000	13.8432	-0.000556944	0.664206	325.291
482.0000	14.1193	-0.000561221	0.660812	324.965
481.5000	14.571	-0.000560521	0.657654	324.662
481.0000	14.9533	-0.000535637	0.65475	324.391
480.5000	15.0023	-0.000542708	0.651612	324.141
480.0000	15.0888	-0.000546643	0.648089	323.893
479.5000	14.7212	-0.000546636	0.644441	323.641
479.0000	14.7791	-0.000557604	0.639604	323.301
478.5000	14.6368	-0.000578629	0.634296	322.739
478.0000	14.9314	-0.000581112	0.62993	321.932
477.5000	14.7437	-0.000586765	0.627839	321.193
477.0000	14.768	-0.000579242	0.626088	320.664
476.5000	14.7843	-0.000594534	0.621943	320.156
476.0000	15.227	-0.000589847	0.616489	319.462
475.5000	15.3302	-0.000598852	0.610675	318.538
475.0000	15.4145	-0.000603592	0.604795	317.407
474.5000	15.2863	-0.000587048	0.599812	316.194
474.0000	15.2843	-0.000591074	0.5952	314.849
473.5000	15.2438	-0.000589717	0.590337	313.315
473.0000	14.8767	-0.000608305	0.585216	311.608
472.5000	14.7201	-0.000607642	0.581014	309.778
472.0000	14.5195	-0.000603716	0.578942	308.232
471.5000	14.5834	-0.000593051	0.577545	307.007
471.0000	14.6987	-0.000586669	0.576254	306.284
470.5000	14.5634	-0.000567226	0.574612	305.812
470.0000	14.451	-0.000560726	0.572586	305.663
469.5000	14.2926	-0.000574122	0.568672	305.619
469.0000	14.118	-0.000571649	0.561248	305.277
468.5000	14.077	-0.000579785	0.553613	304.532
468.0000	13.687	-0.000550073	0.547984	303.663
467.5000	13.3088	-0.000553807	0.544018	302.923
467.0000	13.0667	-0.000545642	0.541194	302.384
466.5000	12.9335	-0.000561758	0.538825	302.048
466.0000	12.9448	-0.000544202	0.535726	301.894
465.5000	12.8026	-0.00055391	0.532243	301.944
465.0000	12.7579	-0.000550836	0.528298	302.243
464.5000	12.722	-0.000545807	0.5231	302.712
464.0000	12.4076	-0.000559094	0.516084	303.083
463.5000	12.2026	-0.000561421	0.507801	303.139
463.0000	12.0171	-0.000553256	0.499882	302.879
462.5000	11.7443	-0.000553899	0.493204	302.43
462.0000	11.6151	-0.00054972	0.487777	301.938
461.5000	11.3199	-0.000530248	0.482872	301.519
461.0000	11.5298	-0.000525554	0.478308	301.238
460.5000	11.2977	-0.000508551	0.473395	301.073
460.0000	11.0859	-0.000493135	0.468546	300.995
459.5000	10.766	-0.000510977	0.46343	300.981
459.0000	10.7254	-0.000505967	0.457353	300.921
458.5000	10.6173	-0.000487183	0.450749	300.77
458.0000	10.296	-0.000494943	0.443943	300.498
457.5000	10.038	-0.000513885	0.43688	300.003
457.0000	9.90592	-0.000504578	0.430134	299.314
456.5000	9.59121	-0.000488379	0.424857	298.643
456.0000	9.4832	-0.000470803	0.419442	298.07
455.5000	9.34761	-0.000475897	0.412353	297.365
455.0000	9.09333	-0.000464215	0.405527	296.509
454.5000	8.93023	-0.000466092	0.400413	295.682
454.0000	8.80422	-0.000451213	0.396133	295.1
453.5000	8.7684	-0.00043779	0.390863	294.72
453.0000	8.56548	-0.000436482	0.384962	294.35
452.5000	8.31594	-0.000431221	0.379211	293.951
452.0000	7.99499	-0.000432623	0.373616	293.506
451.5000	7.89328	-0.000427487	0.36766	293.032
451.0000	7.90813	-0.00041794	0.362046	292.581
450.5000	7.57783	-0.000408977	0.356019	292.076
450.0000	7.36413	-0.000413098	0.350903	291.608
449.5000	7.262	-0.000388741	0.346349	291.225
449.0000	7.33636	-0.00037923	0.342335	291.01
448.5000	7.06631	-0.000370002	0.337144	290.832
448.0000	7.23984	-0.000354388	0.331367	290.54
447.5000	7.10611	-0.000347187	0.326764	290.229
447.0000	7.02139	-0.000338711	0.323717	290.122
446.5000	6.83288	-0.000333429	0.320303	290.197
446.0000	6.7258	-0.000330008	0.314449	290.175
445.5000	6.44487	-0.000334434	0.308341	289.867
445.0000	6.23489	-0.000334997	0.303196	289.379
444.5000	6.0777	-0.000330435	0.298306	288.84
444.0000	6.02235	-0.000324605	0.293517	288.284
443.5000	5.78343	-0.00032128	0.288956	287.683
443.0000	5.65184	-0.000310859	0.285081	287.131
442.5000	5.591	-0.000296011	0.281424	286.608
442.0000	5.49139	-0.000292646	0.278136	286.19
441.5000	5.50818	-0.000293421	0.274112	285.735
441.0000	5.06823	-0.000285101	0.270463	285.332
440.5000	4.66988	-0.000273552	0.266899	284.939
440.0000	4.70217	-0.000259549	0.263068	284.526
439.5000	4.60202	-0.00026282	0.259234	284.12
439.0000	4.49057	-0.000258369	0.254882	283.674
438.5000	4.22572	-0.000238695	0.250341	283.231
438.0000	4.14213	-0.000222282	0.245853	282.812
437.5000	4.03945	-0.000219138	0.241599	282.406
437.0000	4.0877	-0.000213275	0.236968	281.983
436.5000	3.97579	-0.00021144	0.233392	281.624
436.0000	4.03062	-0.000190555	0.23024	281.319
435.5000	3.97028	-0.000187463	0.226634	281.037
435.0000	3.89767	-0.000179554	0.222854	280.775
434.5000	3.78613	-0.000177125	0.218926	280.503
434.0000	3.77923	-0.00016978	0.215175	280.214
433.5000	3.53106	-0.000159361	0.21164	279.915
433.0000	3.5812	-0.00016004	0.208228	279.578
432.5000	3.73055	-0.00015514	0.205047	279.255
432.0000	3.64134	-0.000157571	0.20162	278.916
431.5000	3.39471	-0.000155208	0.198105	278.558
431.0000	3.31487	-0.000155207	0.194892	278.215
430.5000	3.2829	-0.000144952	0.191843	277.875
430.0000	3.3658	-0.000142666	0.189074	277.547
429.5000	3.16523	-0.000141777	0.186015	277.197
429.0000	3.12703	-0.000135605	0.183114	276.856
428.5000	3.11243	-0.000129044	0.180263	276.528
428.0000	2.9811	-0.000132031	0.176964	276.185
427.5000	2.8259	-0.000136101	0.174206	275.87
427.0000	2.658	-0.000130714	0.171424	275.543
426.5000	2.52306	-0.000122565	0.168791	275.22
426.0000	2.34722	-0.000115093	0.166234	274.886
425.5000	2.25825	-0.000120973	0.163718	274.516
425.0000	2.31247	-0.000107088	0.16094	274.114
424.5000	2.12355	-0.000111347	0.158246	273.688
424.0000	2.26408	-0.000108897	0.155699	273.258
423.5000	2.23906	-0.000106406	0.153855	272.893
423.0000	2.16574	-0.000110401	0.152022	272.594
422.5000	2.10119	-0.000103485	0.149967	272.332
422.0000	2.03182	-0.000113635	0.147504	272.063
421.5000	1.96216	-0.000120997	0.145315	271.827
421.0000	2.09627	-0.000112676	0.143426	271.613
420.5000	2.12167	-0.000108936	0.141316	271.383
420.0000	2.01932	-0.000104092	0.13938	271.154
419.5000	1.89997	-9.64424E-005	0.137509	270.912
419.0000	1.75839	-9.62373E-005	0.135679	270.685
418.5000	1.82062	-9.96208E-005	0.133675	270.478
418.0000	1.85541	-8.98498E-005	0.132033	270.281
417.5000	1.98411	-8.35109E-005	0.130353	270.099
417.0000	1.9399	-8.50239E-005	0.128939	269.926
416.5000	2.05114	-8.45344E-005	0.128077	269.837
416.0000	1.95314	-7.65247E-005	0.126807	269.775
415.5000	1.92241	-6.9372E-005	0.12519	269.697
415.0000	1.89589	-6.23381E-005	0.123335	269.562
414.5000	1.98604	-5.88911E-005	0.121794	269.383
414.0000	2.02696	-4.88007E-005	0.120942	269.221
413.5000	2.00577	-3.29954E-005	0.120117	269.045
413.0000	1.7842	-3.56745E-005	0.119199	268.874
412.5000	1.67207	-2.56273E-005	0.118313	268.729
412.0000	1.62339	-2.25718E-005	0.117444	268.595
411.5000	1.6986	-1.92225E-005	0.116374	268.466
411.0000	1.72389	-3.42819E-005	0.115578	268.366
410.5000	1.77257	-2.36151E-005	0.114969	268.274
410.0000	1.72311	-2.45112E-005	0.114581	268.201
409.5000	1.66554	-3.25928E-005	0.11423	268.144
409.0000	1.62883	-2.94695E-005	0.113616	268.082
408.5000	1.6614	-2.30943E-005	0.112934	268.04
408.0000	1.58603	-1.71801E-005	0.111999	267.992
407.5000	1.66791	-1.76586E-005	0.111065	267.936
407.0000	1.71447	-2.24497E-005	0.110436	267.881
406.5000	1.74378	-4.12611E-005	0.110059	267.834
406.0000	1.60043	-4.52848E-005	0.109594	267.774
405.5000	1.57392	-4.5912E-005	0.108811	267.693
405.0000	1.52493	-6.24108E-005	0.10817	267.602
404.5000	1.66033	-5.23408E-005	0.107624	267.5
404.0000	1.62613	-5.978E-005	0.107376	267.368
403.5000	1.60575	-5.25777E-005	0.107066	267.208
403.0000	1.57002	-5.2371E-005	0.107066	267.033
402.5000	1.72719	-4.91244E-005	0.106585	266.83
402.0000	1.71695	-5.15014E-005	0.106684	266.651
401.5000	1.74939	-5.88188E-005	0.107007	266.46
401.0000	1.75805	-6.15721E-005	0.106944	266.276
400.5000	1.69733	-4.98033E-005	0.107004	266.113
400.0000	1.54891	-4.57652E-005	0.106989	265.977
399.5000	1.5349	-5.92886E-005	0.10764	265.862
399.0000	1.4803	-4.78426E-005	0.108196	265.773
398.5000	1.31906	-4.59406E-005	0.108567	265.701
398.0000	1.38195	-4.12258E-005	0.108777	265.64
397.5000	1.2965	-4.59863E-005	0.108941	265.601
397.0000	1.36661	-4.27668E-005	0.109419	265.584
396.5000	1.32513	-4.34292E-005	0.109716	265.6
396.0000	1.35266	-5.3136E-005	0.11018	265.647
395.5000	1.2562	-6.59193E-005	0.110347	265.726
395.0000	1.16292	-7.95479E-005	0.110519	265.82
394.5000	1.25477	-8.18246E-005	0.11089	265.947
394.0000	1.13265	-7.484E-005	0.111227	266.092
393.5000	1.10902	-6.92443E-005	0.11121	266.249
393.0000	1.20894	-8.03274E-005	0.111078	266.422
392.5000	1.25881	-5.78593E-005	0.111328	266.603
392.0000	1.2867	-6.7217E-005	0.111829	266.772
391.5000	1.27127	-6.99301E-005	0.112403	266.913
391.0000	1.15756	-8.47359E-005	0.112779	267.038
390.5000	1.16439	-8.86588E-005	0.113031	267.164
390.0000	1.04636	-7.74918E-005	0.113192	267.271
389.5000	1.10476	-7.7415E-005	0.11376	267.376
389.0000	1.05719	-8.81685E-005	0.114497	267.474
388.5000	0.923159	-8.8461E-005	0.114904	267.56
388.0000	0.987671	-8.62766E-005	0.115229	267.644
387.5000	1.00936	-6.91215E-005	0.115702	267.711
387.0000	0.971978	-5.82842E-005	0.116629	267.773
386.5000	0.891681	-5.48333E-005	0.117558	267.846
386.0000	0.926958	-5.10961E-005	0.118568	267.91
385.5000	0.918975	-7.60741E-005	0.119411	267.954
385.0000	0.870775	-8.31615E-005	0.120321	267.998
384.5000	0.734324	-9.48397E-005	0.121179	268.037
384.0000	0.573241	-0.000112785	0.122159	268.074
383.5000	0.708212	-9.8254E-005	0.122943	268.118
383.0000	0.822263	-0.000112202	0.123443	268.148
382.5000	0.904288	-0.000111106	0.12403	268.18
382.0000	0.834477	-0.000110141	0.125052	268.211
381.5000	0.846302	-0.000127375	0.126307	268.252
381.0000	0.741404	-0.000110541	0.12722	268.291
380.5000	0.906714	-0.000114847	0.128035	268.338
380.0000	1.00653	-0.00011154	0.129211	268.395
379.5000	1.01227	-0.000101487	0.130345	268.445
379.0000	1.01472	-0.000124771	0.131138	268.498
378.5000	1.06169	-0.00012926	0.131526	268.542
378.0000	1.08017	-0.000134055	0.132051	268.593
377.5000	1.12903	-0.000135954	0.132658	268.638
377.0000	1.30629	-0.000116263	0.133164	268.674
376.5000	1.27311	-0.000115041	0.133893	268.707
376.0000	1.28195	-0.00012212	0.134633	268.734
375.5000	1.27316	-0.000126483	0.135107	268.754
375.0000	1.2723	-0.000128479	0.135683	268.775
374.5000	1.15988	-0.000132188	0.136194	268.783
374.0000	1.08352	-0.000144205	0.136736	268.79
373.5000	1.09178	-0.00014446	0.137177	268.797
373.0000	1.22196	-0.000167702	0.13741	268.805
372.5000	1.30679	-0.000167222	0.137661	268.808
372.0000	1.31654	-0.000160398	0.13804	268.815
371.5000	1.22302	-0.000163451	0.138308	268.822
371.0000	1.13943	-0.000175892	0.138825	268.835
370.5000	1.14116	-0.000161307	0.139632	268.868
370.0000	0.903399	-0.000162472	0.14014	268.889
369.5000	0.836395	-0.000169765	0.140533	268.906
369.0000	0.94162	-0.000174662	0.141029	268.934
368.5000	0.75466	-0.00017598	0.141733	268.975
368.0000	0.652777	-0.000192489	0.142258	269.024
367.5000	0.616993	-0.000192859	0.14295	269.083
367.0000	0.697826	-0.000192633	0.143816	269.142
366.5000	0.746914	-0.000194687	0.144384	269.203
366.0000	0.576642	-0.000205764	0.144932	269.274
365.5000	0.667041	-0.000194444	0.145481	269.346
365.0000	0.761933	-0.000184122	0.145914	269.419
364.5000	0.670002	-0.000181317	0.14651	269.487
364.0000	0.596611	-0.000189067	0.14697	269.56
363.5000	0.582735	-0.00018893	0.147845	269.641
363.0000	0.621257	-0.000205313	0.148639	269.72
362.5000	0.587244	-0.000216223	0.149154	269.787
362.0000	0.904593	-0.000222369	0.149757	269.865
361.5000	1.08536	-0.000212126	0.150587	269.946
361.0000	0.996753	-0.000217649	0.151374	270.026
360.5000	0.966404	-0.00022199	0.151958	270.108
360.0000	1.15745	-0.000208462	0.152487	270.176
359.5000	1.15536	-0.000203904	0.152949	270.245
359.0000	1.21213	-0.000207315	0.153239	270.32
358.5000	1.24144	-0.000208358	0.153338	270.388
358.0000	1.28576	-0.000209854	0.153481	270.457
357.5000	1.3715	-0.000204836	0.153623	270.527
357.0000	1.28701	-0.000223346	0.154049	270.6
356.5000	1.3821	-0.00022643	0.154717	270.665
356.0000	1.38211	-0.000244191	0.155039	270.732
355.5000	1.49671	-0.000245168	0.155293	270.796
355.0000	1.52358	-0.000257926	0.155391	270.855
354.5000	1.5324	-0.000247343	0.155501	270.918
354.0000	1.58768	-0.000254373	0.155895	270.996
353.5000	1.47353	-0.000267608	0.156153	271.061
353.0000	1.32499	-0.000265774	0.156269	271.121
352.5000	1.33949	-0.000266287	0.156621	271.2
352.0000	1.39449	-0.000276707	0.156993	271.279
351.5000	1.35837	-0.00029117	0.157408	271.359
351.0000	1.31006	-0.000291015	0.158177	271.441
350.5000	1.40811	-0.000305005	0.15889	271.508
350.0000	1.35796	-0.000303097	0.159638	271.574
349.5000	1.41214	-0.000309783	0.160677	271.658
349.0000	1.41929	-0.000313363	0.161826	271.744
348.5000	1.31345	-0.000305953	0.16298	271.824
348.0000	1.30103	-0.000308892	0.163968	271.911
347.5000	1.15896	-0.000303084	0.165234	271.998
347.0000	1.16058	-0.000317578	0.166463	272.079
346.5000	1.22687	-0.000324032	0.167312	272.143
346.0000	1.29737	-0.000334384	0.168221	272.22
345.5000	1.27716	-0.000336728	0.169148	272.283
345.0000	1.25576	-0.000341786	0.170321	272.365
344.5000	1.35665	-0.000349756	0.171395	272.436
344.0000	1.42163	-0.000360809	0.172647	272.508
343.5000	1.46011	-0.000371804	0.173667	272.582
343.0000	1.40135	-0.000381643	0.174299	272.632
342.5000	1.41285	-0.000377942	0.1749	272.692
342.0000	1.31407	-0.00038541	0.17577	272.778
341.5000	1.21151	-0.000400874	0.176577	272.85
341.0000	1.12932	-0.000405022	0.177494	272.914
340.5000	1.32283	-0.000411504	0.178109	272.976
340.0000	1.45716	-0.000416505	0.178931	273.058
339.5000	1.49118	-0.000429996	0.179334	273.127
339.0000	1.55904	-0.000442159	0.180162	273.208
338.5000	1.45032	-0.000443852	0.181108	273.294
338.0000	1.34318	-0.000426773	0.18201	273.38
337.5000	1.33372	-0.000416093	0.182944	273.477
337.0000	1.40222	-0.000419435	0.183724	273.57
336.5000	1.36006	-0.000419943	0.184676	273.659
336.0000	1.37073	-0.000429918	0.185492	273.748
335.5000	1.61647	-0.000422098	0.18637	273.841
335.0000	1.57114	-0.00043084	0.187201	273.93
334.5000	1.70433	-0.000431903	0.187992	274.025
334.0000	1.83785	-0.000449252	0.189128	274.138
333.5000	1.83205	-0.00045501	0.190459	274.239
333.0000	1.95106	-0.000459542	0.191535	274.347
332.5000	1.79329	-0.000466331	0.192262	274.451
332.0000	1.74968	-0.000476035	0.193049	274.553
331.5000	1.87652	-0.000480337	0.194117	274.661
331.0000	1.83578	-0.000488491	0.195287	274.774
330.5000	1.8953	-0.000494973	0.196136	274.879
330.0000	1.83833	-0.000504783	0.197239	274.998
329.5000	1.89336	-0.000518275	0.198346	275.118
329.0000	1.92156	-0.000547078	0.199236	275.229
328.5000	1.96976	-0.000549257	0.200275	275.341
328.0000	2.0186	-0.000561204	0.200992	275.435
327.5000	1.96051	-0.000563691	0.201956	275.533
327.0000	1.93827	-0.000578539	0.203159	275.629
326.5000	1.89361	-0.000581574	0.204519	275.736
326.0000	1.88815	-0.000582867	0.206148	275.864
325.5000	1.84944	-0.00059387	0.20758	275.996
325.0000	1.87844	-0.000605056	0.208593	276.119
324.5000	1.97179	-0.000612311	0.209857	276.252
324.0000	2.10332	-0.000630176	0.211465	276.399
323.5000	2.01607	-0.000628256	0.213175	276.546
323.0000	1.86197	-0.000629309	0.214643	276.694
322.5000	1.81852	-0.000648302	0.216112	276.847
322.0000	1.71817	-0.000649135	0.21747	277.002
321.5000	1.83428	-0.000661223	0.219093	277.159
321.0000	1.88828	-0.000680281	0.220733	277.315
320.5000	2.01244	-0.000683487	0.222393	277.467
320.0000	2.01823	-0.000687331	0.224035	277.631
319.5000	1.97915	-0.000698455	0.225745	277.801
319.0000	1.85397	-0.000699791	0.227288	277.98
318.5000	1.76965	-0.000713985	0.228822	278.168
318.0000	1.78944	-0.00073116	0.230186	278.335
317.5000	1.8627	-0.000746015	0.231584	278.487
317.0000	1.83543	-0.000760883	0.233114	278.624
316.5000	2.05619	-0.000758172	0.23481	278.762
316.0000	2.0729	-0.000767761	0.236665	278.918
315.5000	2.21914	-0.000763963	0.238215	279.078
315.0000	2.25188	-0.000782192	0.239914	279.264
314.5000	2.2731	-0.000789923	0.241463	279.436
314.0000	2.35865	-0.000793399	0.243211	279.617
313.5000	2.53105	-0.000807832	0.245018	279.8
313.0000	2.61518	-0.000801462	0.24682	279.992
312.5000	2.70914	-0.000799048	0.248581	280.192
312.0000	2.56412	-0.000813259	0.250461	280.385
311.5000	2.6202	-0.000814763	0.252324	280.588
311.0000	2.8112	-0.000828852	0.254521	280.8
310.5000	2.86609	-0.000841357	0.256663	281.047
310.0000	2.84818	-0.000838906	0.258842	281.276
309.5000	2.95133	-0.000836592	0.261217	281.52
309.0000	2.97315	-0.000835891	0.263978	281.806
308.5000	3.0233	-0.00083493	0.266398	282.091
308.0000	2.9299	-0.000835015	0.268803	282.369
307.5000	2.84583	-0.000836531	0.271725	282.689
307.0000	2.86484	-0.000836697	0.274587	282.984
306.5000	2.998	-0.00083775	0.277787	283.311
306.0000	3.29723	-0.000831905	0.281025	283.629
305.5000	3.24835	-0.000834347	0.284408	283.988
305.0000	3.36369	-0.000838227	0.287906	284.346
304.5000	3.22032	-0.000846003	0.292006	284.747
304.0000	3.27852	-0.000858125	0.296349	285.164
303.5000	3.19007	-0.000851044	0.300761	285.588
303.0000	3.23413	-0.000858338	0.305336	286.05
302.5000	3.17541	-0.000858681	0.310189	286.544
302.0000	3.16414	-0.000861838	0.315357	287.05
301.5000	3.11106	-0.000869368	0.320862	287.584
301.0000	3.27038	-0.000871833	0.326284	288.132
300.5000	3.25609	-0.000886223	0.331168	288.629
300.0000	3.14493	-0.000893813	0.337559	289.243
299.5000	3.22726	-0.000887343	0.343573	289.834
299.0000	3.17769	-0.00089208	0.349401	290.423
298.5000	3.24052	-0.000899244	0.355373	291.037
298.0000	3.07133	-0.000919923	0.361165	291.624
297.5000	3.00775	-0.000925923	0.367214	292.231
297.0000	2.84352	-0.000917002	0.37292	292.762
296.5000	2.59819	-0.000911408	0.378403	293.29
296.0000	2.62849	-0.000912533	0.383819	293.818
295.5000	2.47924	-0.000903202	0.389406	294.336
295.0000	2.49554	-0.000900217	0.394567	294.796
294.5000	2.34028	-0.000898253	0.399731	295.27
294.0000	2.06247	-0.000884565	0.404747	295.772
293.5000	2.19474	-0.00087939	0.408943	296.209
293.0000	2.13046	-0.000869344	0.413452	296.669
292.5000	2.01882	-0.000874094	0.417801	297.136
292.0000	2.0973	-0.000838846	0.421677	297.569
291.5000	2.14033	-0.0008388	0.425443	297.979
291.0000	2.02504	-0.00083229	0.429068	298.374
290.5000	1.82265	-0.000829524	0.433119	298.803
290.0000	1.71887	-0.000801069	0.437118	299.209
289.5000	1.43814	-0.000787324	0.440682	299.601
289.0000	1.33371	-0.000772213	0.444185	299.994
288.5000	1.30388	-0.00077072	0.448032	300.433
288.0000	1.20075	-0.000760105	0.45173	300.86
287.5000	1.19968	-0.000731567	0.455602	301.317
287.0000	0.982427	-0.000720569	0.45941	301.808
286.5000	0.973045	-0.000698157	0.462983	302.296
286.0000	1.01246	-0.000682535	0.46666	302.759
285.5000	1.08162	-0.000667868	0.470654	303.203
285.0000	0.942975	-0.00064885	0.474895	303.677
284.5000	0.801064	-0.00063782	0.478717	304.112
284.0000	0.79595	-0.000616079	0.483114	304.602
283.5000	0.537957	-0.000621541	0.487682	305.097
283.0000	0.407003	-0.000597092	0.492228	305.594
282.5000	0.375629	-0.000578809	0.497233	306.135
282.0000	0.367866	-0.000549042	0.502166	306.702
281.5000	0.238637	-0.000540818	0.506786	307.242
281.0000	0.326473	-0.000526884	0.511753	307.797
280.5000	0.519562	-0.00049796	0.517082	308.412
280.0000	0.75317	-0.000472215	0.522512	309.036
279.5000	0.402175	-0.000468196	0.528075	309.684
279.0000	0.452	-0.00045872	0.533633	310.341
278.5000	0.646928	-0.000448451	0.539811	311.055
278.0000	0.631486	-0.000458491	0.547098	311.843
277.5000	0.691523	-0.000448218	0.553889	312.581
277.0000	0.748115	-0.000420151	0.561097	313.392
276.5000	0.910539	-0.000377239	0.568501	314.24
276.0000	0.998693	-0.000349503	0.575621	315.046
275.5000	1.30528	-0.000332283	0.583933	315.958
275.0000	1.57792	-0.000309987	0.592744	316.928
274.5000	1.67327	-0.000296468	0.601687	317.937
274.0000	1.95012	-0.000274583	0.611342	319.054
273.5000	2.10628	-0.000271315	0.620774	320.111
273.0000	2.32152	-0.000237437	0.631312	321.286
272.5000	2.32098	-0.000234511	0.642288	322.519
272.0000	2.2813	-0.000216581	0.653743	323.824
271.5000	2.65968	-0.000203086	0.66645	325.272
271.0000	3.04467	-0.000172566	0.679429	326.718
270.5000	3.23247	-0.000142281	0.693237	328.24
270.0000	3.54403	-0.000120018	0.707368	329.838
269.5000	3.78464	-9.17974E-005	0.722041	331.536
269.0000	3.83164	-8.33916E-005	0.736797	333.232
268.5000	3.62798	-9.6611E-005	0.753314	335.12
268.0000	3.47785	-0.000112615	0.770746	337.107
267.5000	3.01927	-0.000109731	0.788886	339.189
267.0000	2.7846	-0.000118374	0.808555	341.489
266.5000	2.63027	-0.00010996	0.828903	343.9
266.0000	2.38067	-0.000100982	0.848509	346.179
265.5000	1.95684	-0.000120011	0.87001	348.66
265.0000	1.47498	-0.000143588	0.892933	351.363
264.5000	1.58818	-0.000149328	0.915061	354.014
264.0000	1.28748	-0.00010806	0.937706	356.741
263.5000	0.362136	-0.000106797	0.962222	359.677
263.0000	-0.153098	-0.000127778	0.984904	362.412
262.5000	-0.368494	-0.000146491	1.00997	365.495
262.0000	-0.658308	-0.000155725	1.03396	368.508
261.5000	-0.949872	-0.000202478	1.05874	371.602
261.0000	-1.64003	-0.000200101	1.083	374.599
260.5000	-2.06803	-0.000216684	1.10897	377.844
260.0000	-2.12448	-0.000186968	1.13557	381.204
259.5000	-2.18993	-0.000185732	1.16276	384.676
259.0000	-2.17952	-0.000202895	1.19054	388.272
258.5000	-2.76035	-0.000231802	1.21965	392.017
258.0000	-2.97338	-0.000246792	1.24985	395.923
257.5000	-3.45827	-0.000282838	1.27939	399.767
257.0000	-3.80694	-0.000314709	1.31185	404.018
256.5000	-4.00534	-0.000320975	1.34426	408.276
256.0000	-4.47508	-0.000367392	1.38001	412.983
255.5000	-4.52933	-0.000468976	1.41758	417.948
255.0000	-4.46261	-0.000515894	1.45686	423.19
254.5000	-5.26546	-0.000462957	1.49577	428.43
254.0000	-6.58007	-0.000466014	1.53643	433.94
253.5000	-7.5074	-0.000504831	1.58404	440.384
253.0000	-8.05607	-0.000524696	1.62881	446.536
252.5000	-9.38259	-0.000585365	1.69799	456.215
252.0000	-11.5683	-0.000582528	1.75791	464.699
251.5000	-12.826	-0.000584314	1.8123	472.477
251.0000	-13.4408	-0.000627673	1.86929	480.678
250.5000	-14.681	-0.000623054	1.92832	489.315
250.0000	-16.1748	-0.000707549	1.98617	497.917
249.5000	-17.3821	-0.000782121	2.04604	506.948
249.0000	-18.6166	-0.00069981	2.11122	516.912
248.5000	-18.3324	-0.00075554	2.17539	526.837
248.0000	-20.1986	-0.000659494	2.24513	537.804
247.5000	-20.0401	-0.000810899	2.31347	548.753
247.0000	-21.9153	-0.000782849	2.38781	560.881
246.5000	-23.628	-0.0007749	2.46472	573.624
246.0000	-23.3298	-0.000752982	2.5442	587.008
245.5000	-22.2317	-0.000552015	2.62971	601.768
245.0000	-20.4956	-0.000736776	2.71798	617.319
244.5000	-21.7197	-0.000754946	2.808	633.51
244.0000	-20.8415	-0.000879915	2.89906	650.287
243.5000	-20.6186	-0.00109238	2.9866	666.803
243.0000	-19.3835	-0.00145773	3.07413	683.73
242.5000	-20.4859	-0.00121645	3.1694	702.614
242.0000	-17.8469	-0.000900163	3.2502	719.013
241.5000	-14.9036	-0.000572713	3.33732	737.104
241.0000	-11.9502	-0.000625845	3.41305	753.201
240.5000	-8.65384	-0.000718052	3.49277	770.63
240.0000	-7.77269	-0.000662518	3.56082	785.86
239.5000	-7.82528	-0.000620611	3.63406	802.654
239.0000	-4.91064	-0.000404054	3.69266	816.384
238.5000	-4.20566	-0.000568818	3.74916	829.951
238.0000	0.537873	-0.000453704	3.80186	843.029
237.5000	0.682836	-0.000544021	3.84383	853.791
237.0000	0.69094	-0.000394588	3.88233	863.981
236.5000	2.29351	-0.000165543	3.91522	873.016
236.0000	1.55885	-0.000151187	3.94151	880.538
235.5000	3.81379	2.8098E-005	3.96567	887.943
235.0000	5.26832	0.000458241	3.97846	892.192
234.5000	6.30872	0.000576317	3.98937	896.101
234.0000	8.69382	0.00046805	3.99805	899.581
233.5000	7.45252	0.000200493	4.00444	902.683
233.0000	5.88824	-5.71186E-005	4.0079	905.211
232.5000	2.04218	1.10517E-005	4.00843	907.057
232.0000	2.98443	0.000398501	4.0062	908.61
231.5000	2.59464	0.000271999	4.00255	909.529
231.0000	1.56319	0.000341849	3.99718	910.278
230.5000	-2.44149	7.68551E-005	3.99044	910.813
230.0000	-0.83673	9.96342E-005	3.98272	911.129
229.5000	-2.15486	0.000130179	3.97422	911.389
229.0000	-0.902842	0.000260094	3.96513	911.571
228.5000	-2.12817	0.000464487	3.95593	911.719
228.0000	0.275459	0.000167429	3.94687	911.818
227.5000	1.63874	0.000237394	3.93644	911.847
227.0000	0.224498	0.000378117	3.92586	911.875
226.5000	2.5975	0.000283292	3.91477	911.929
226.0000	6.82901	0.000438335	3.90443	911.983
225.5000	5.65093	0.000365268	3.89313	912.002
225.0000	7.58727	0.000308295	3.88135	912.057
224.5000	7.13189	0.000352557	3.8691	912.071
224.0000	8.10342	0.000212043	3.85703	912.117
223.5000	5.6937	-9.23089E-005	3.84518	912.146
223.0000	7.12343	2.55194E-005	3.8335	912.179
222.5000	9.33824	0.000230321	3.81894	912.197
222.0000	15.4232	0.000315925	3.80559	912.223
221.5000	11.3664	0.000221627	3.79159	912.267
221.0000	10.8143	0.000248376	3.77962	912.307
220.5000	11.8816	0.000202405	3.76746	912.332
220.0000	6.85977	0.000100896	3.75449	912.33

##### Extended Information
[Comments]
Sample name	JS187+JS190_5E-5_H2O_30-70_100EQDT+72H
Comment
User
Division
Company	Labo systeme complexes hors equilibre

[Detailed Information]
Creation date	1/26/2024 12:13 PM

Data array type	Linear data array * 4
Horizontal axis	Wavelength [nm]
Vertical axis(1)	CD [mdeg]
Vertical axis(2)	LD [dOD]
Vertical axis(3)	Abs
Vertical axis(4)	HT [V]
Start	700 nm
End	220 nm
Data interval	0.5 nm
Data points	961     

[Measurement Information]
Instrument name	CD Jasco
Model name	J-1500
Serial No.	A005261638

Detector	PM-539
Detector S/N	A0052PM539
  Lock-in amp.	X mode
  HT volt	Auto

Detector	EXPML-535
Detector S/N	A0001
  Lock-in amp.	X mode
  HT volt	Auto

Measurement date	1/26/2024 12:13 PM

Overload detect	1
Photometric mode	CD, LD, Abs, HT
Measure range	700 - 220 nm
Data pitch	0.5 nm
CD scale	200 mdeg/1.0 dOD
FL scale	200 mdeg/1.0 dOD
D.I.T.	1 sec
Bandwidth	1.00 nm
Start mode	Immediately
Scanning speed	500 nm/min
Baseline correction	Baseline
Shutter control	Auto


