TITLE	JS187+JS190_5E-5_H2O_90-10_100EQDT+72H
DATA TYPE	
ORIGIN	JASCO
OWNER	
DATE	24/01/26
TIME	10:04:09
SPECTROMETER/DATA SYSTEM	
LOCALE	1033
RESOLUTION	
DELTAX	-0.5
XUNITS	NANOMETERS
YUNITS	CD [mdeg]
Y2UNITS	LD [dOD]
Y3UNITS	ABSORBANCE
Y4UNITS	HT [V]
FIRSTX	  700.0000
LASTX	  220.0000
NPOINTS	     961
FIRSTY	    -0.72154
MAXY	    44.40753
MINY	   -31.26286
XYDATA
700.0000	-0.721536	-0.000208114	0.00398132	304.727
699.5000	-0.762724	-0.000214504	0.00320065	304.447
699.0000	-0.691265	-0.000206775	0.00240301	304.12
698.5000	-0.702671	-0.000191314	0.00212686	303.758
698.0000	-0.674571	-0.00019308	0.00125406	303.34
697.5000	-0.814309	-0.000169468	6.39511E-005	302.918
697.0000	-0.997961	-0.000159216	-0.00134112	302.456
696.5000	-0.997385	-0.000162801	-0.00210864	301.973
696.0000	-1.18569	-0.000150796	-0.00210861	301.445
695.5000	-0.911997	-0.000163817	-0.00222601	300.907
695.0000	-0.932285	-0.000169733	-0.00191437	300.412
694.5000	-1.09176	-0.000174192	-0.00180222	299.919
694.0000	-0.986735	-0.000158427	-0.000508875	299.46
693.5000	-0.866724	-0.000152209	0.00111621	299.038
693.0000	-0.900766	-0.000151725	0.00339151	298.675
692.5000	-1.07436	-0.0001506	0.00569032	298.339
692.0000	-0.897823	-0.000132709	0.00803033	298.046
691.5000	-0.759991	-0.000148311	0.0107715	297.801
691.0000	-0.651527	-0.000154849	0.013463	297.57
690.5000	-0.751474	-0.000143624	0.0152871	297.362
690.0000	-0.744157	-0.000141968	0.0167476	297.168
689.5000	-0.811816	-0.000142695	0.0182369	297
689.0000	-0.708043	-0.000134399	0.0201724	296.857
688.5000	-0.767614	-0.000124646	0.0221049	296.793
688.0000	-0.887655	-0.000116172	0.0248123	296.83
687.5000	-1.13158	-0.000114676	0.0280713	296.966
687.0000	-1.33315	-0.000101902	0.0311808	297.168
686.5000	-1.3327	-0.000112643	0.0336467	297.399
686.0000	-1.48228	-0.000129799	0.0347875	297.637
685.5000	-1.39753	-0.000138594	0.0351221	297.904
685.0000	-1.68119	-0.00015599	0.0349412	298.157
684.5000	-1.85285	-0.000147341	0.034152	298.397
684.0000	-1.70309	-0.000139131	0.0328984	298.63
683.5000	-1.87042	-0.000137297	0.0321035	298.868
683.0000	-1.92902	-0.000126861	0.0311549	299.105
682.5000	-2.09757	-0.000142065	0.0305855	299.333
682.0000	-1.79777	-0.000155687	0.0300149	299.599
681.5000	-1.70384	-0.000156131	0.030128	299.881
681.0000	-1.57607	-0.000151804	0.0302671	300.179
680.5000	-1.41811	-0.000151393	0.0303729	300.449
680.0000	-1.24003	-0.000151717	0.0291693	300.665
679.5000	-1.25907	-0.000169398	0.0273972	300.821
679.0000	-1.28744	-0.000165477	0.0243408	300.901
678.5000	-1.10914	-0.000157457	0.0222986	300.942
678.0000	-0.879089	-0.000143904	0.0203598	300.953
677.5000	-0.811702	-0.000135549	0.0193373	300.959
677.0000	-1.08432	-0.00013262	0.0187972	300.939
676.5000	-0.832679	-0.000135772	0.018861	300.906
676.0000	-0.93494	-0.000144285	0.0190835	300.884
675.5000	-0.912377	-0.000154012	0.0190764	300.84
675.0000	-1.11473	-0.000158125	0.0195879	300.831
674.5000	-1.18933	-0.000153844	0.0205107	300.83
674.0000	-1.30842	-0.000113118	0.021528	300.84
673.5000	-1.29575	-0.000107233	0.0226304	300.859
673.0000	-1.46314	-0.000100926	0.0227215	300.877
672.5000	-1.7952	-0.000119463	0.0228336	300.907
672.0000	-1.79928	-9.71534E-005	0.0233905	300.956
671.5000	-1.85471	-7.78739E-005	0.0243704	301.002
671.0000	-1.83757	-6.81163E-005	0.0254383	301.06
670.5000	-1.87984	-5.74822E-005	0.0267774	301.126
670.0000	-2.01627	-2.80716E-005	0.0277997	301.184
669.5000	-1.87979	-1.42988E-005	0.0281746	301.235
669.0000	-1.85476	-1.31111E-005	0.0285527	301.284
668.5000	-1.61395	-1.52905E-005	0.0290912	301.353
668.0000	-1.7504	-3.68115E-005	0.0294865	301.44
667.5000	-1.66113	-3.13719E-005	0.0299558	301.551
667.0000	-1.9291	-3.63304E-005	0.0300501	301.653
666.5000	-1.8183	-4.09495E-005	0.030131	301.754
666.0000	-1.92044	-4.33154E-005	0.0295915	301.871
665.5000	-2.01263	-6.33636E-005	0.0293253	301.974
665.0000	-2.02684	-7.00278E-005	0.0300033	302.091
664.5000	-1.85208	-5.60194E-005	0.0309054	302.2
664.0000	-1.83933	-4.60893E-005	0.0310137	302.299
663.5000	-1.95276	-6.66238E-005	0.0301428	302.397
663.0000	-1.77722	-9.28931E-005	0.0299488	302.48
662.5000	-1.75078	-9.04281E-005	0.0295598	302.549
662.0000	-1.6615	-0.000111076	0.029242	302.62
661.5000	-1.9368	-0.000128892	0.0294217	302.676
661.0000	-1.90887	-0.000146857	0.0292159	302.721
660.5000	-1.90389	-0.000125805	0.0288443	302.759
660.0000	-1.75836	-0.000114155	0.0285814	302.772
659.5000	-1.70629	-9.51829E-005	0.0278276	302.771
659.0000	-1.64334	-9.39459E-005	0.027227	302.748
658.5000	-1.95061	-8.75108E-005	0.0268812	302.715
658.0000	-1.83242	-8.43496E-005	0.026725	302.649
657.5000	-1.54096	-8.17288E-005	0.026047	302.568
657.0000	-1.6425	-7.54942E-005	0.026379	302.479
656.5000	-1.56447	-6.97465E-005	0.0253932	302.349
656.0000	-1.49459	-6.2264E-005	0.0245344	302.207
655.5000	-1.43781	-5.91093E-005	0.0249578	302.035
655.0000	-1.38105	-4.51082E-005	0.0246684	301.848
654.5000	-1.2965	-3.79308E-005	0.0237417	301.649
654.0000	-1.41098	-3.31404E-005	0.0236723	301.454
653.5000	-1.45471	-3.29338E-005	0.0243273	301.269
653.0000	-1.3312	-3.20892E-005	0.0252765	301.092
652.5000	-1.3778	-9.26426E-006	0.0262614	300.946
652.0000	-1.17694	-9.46988E-006	0.0273763	300.821
651.5000	-1.45848	-5.23242E-006	0.02903	300.729
651.0000	-1.65606	-1.9246E-005	0.0313139	300.681
650.5000	-1.43392	-6.94685E-006	0.0328107	300.655
650.0000	-1.23366	4.74308E-006	0.0348058	300.662
649.5000	-1.40937	3.96298E-006	0.036239	300.69
649.0000	-1.75483	-1.03773E-005	0.037908	300.74
648.5000	-1.58229	-2.45096E-005	0.0386563	300.812
648.0000	-1.47523	-3.02854E-005	0.0398434	300.917
647.5000	-1.64141	-3.88701E-005	0.0409786	301.043
647.0000	-1.73558	-4.23631E-005	0.0416356	301.196
646.5000	-1.77448	-4.80283E-005	0.0422591	301.367
646.0000	-1.71406	-5.92227E-005	0.0437136	301.535
645.5000	-1.73003	-5.30003E-005	0.0443645	301.699
645.0000	-1.77047	-4.75236E-005	0.0438759	301.851
644.5000	-1.90611	-5.16935E-005	0.0435488	301.97
644.0000	-1.91131	-4.82648E-005	0.0434451	302.074
643.5000	-1.94894	-6.2441E-005	0.0429504	302.152
643.0000	-1.60535	-4.79298E-005	0.0423834	302.195
642.5000	-1.45287	-4.36046E-005	0.0418082	302.209
642.0000	-1.42633	-3.54474E-005	0.041448	302.206
641.5000	-1.47753	-5.07097E-005	0.0410131	302.188
641.0000	-1.29741	-5.71577E-005	0.0409726	302.161
640.5000	-1.12206	-2.31344E-005	0.0413611	302.124
640.0000	-1.03633	-1.03956E-005	0.0419299	302.07
639.5000	-1.32689	-2.79175E-005	0.042831	302.005
639.0000	-1.41341	-1.27245E-005	0.0434721	301.932
638.5000	-1.36087	-4.37504E-005	0.0445674	301.848
638.0000	-1.36943	-1.79533E-005	0.0452126	301.776
637.5000	-1.53159	-6.77392E-006	0.0455224	301.689
637.0000	-1.4603	-1.86569E-006	0.0467644	301.606
636.5000	-1.30937	-1.37409E-006	0.0478204	301.534
636.0000	-1.32168	-7.84118E-006	0.0482556	301.471
635.5000	-1.00741	-3.68912E-006	0.0488492	301.414
635.0000	-1.19273	-6.92693E-006	0.0500017	301.374
634.5000	-1.43604	-4.15891E-005	0.0510773	301.341
634.0000	-1.61087	-3.16735E-005	0.0519529	301.3
633.5000	-1.90693	-4.18908E-005	0.0525132	301.268
633.0000	-1.73923	-3.75661E-005	0.0535994	301.24
632.5000	-1.86098	-4.82643E-005	0.0539988	301.207
632.0000	-1.61295	-4.63868E-005	0.0544195	301.176
631.5000	-1.62727	-4.96275E-005	0.0551845	301.152
631.0000	-1.43593	-4.36147E-005	0.055985	301.134
630.5000	-1.39104	-2.32295E-005	0.0567549	301.116
630.0000	-1.33155	-5.51927E-006	0.0575741	301.094
629.5000	-1.14649	-2.57894E-005	0.0584102	301.061
629.0000	-1.00248	-1.62621E-005	0.0590863	301.036
628.5000	-1.09331	-2.60463E-005	0.059516	301.006
628.0000	-1.17505	-2.15567E-005	0.0602994	300.983
627.5000	-1.36363	-2.09327E-005	0.0612872	300.947
627.0000	-1.6428	-4.00993E-005	0.0616779	300.903
626.5000	-1.58613	-2.84029E-005	0.0617265	300.857
626.0000	-1.67614	-2.03463E-005	0.0619497	300.819
625.5000	-1.64302	-1.794E-005	0.0628856	300.789
625.0000	-1.67738	-2.44891E-005	0.0638983	300.761
624.5000	-1.7503	-2.74951E-005	0.0650667	300.749
624.0000	-1.90255	-9.85086E-006	0.066146	300.75
623.5000	-2.13193	-5.25509E-006	0.0672729	300.76
623.0000	-2.18292	-1.39709E-005	0.0684014	300.785
622.5000	-2.29657	-2.61938E-005	0.0696378	300.819
622.0000	-2.37166	-3.6275E-005	0.0706525	300.868
621.5000	-2.48985	-3.10316E-005	0.0716511	300.922
621.0000	-2.68219	-3.80739E-005	0.0728363	300.998
620.5000	-2.71625	-3.91514E-005	0.0736706	301.077
620.0000	-2.78501	-4.3595E-005	0.0744767	301.176
619.5000	-2.82508	-4.59102E-005	0.0756556	301.302
619.0000	-2.81771	-3.64387E-005	0.0773103	301.446
618.5000	-2.82439	-2.65085E-005	0.0793751	301.604
618.0000	-2.77994	-1.94308E-005	0.0814418	301.765
617.5000	-2.31942	-2.17332E-006	0.0824964	301.932
617.0000	-2.40364	7.89704E-006	0.0832069	302.099
616.5000	-2.44323	1.64256E-005	0.0840147	302.271
616.0000	-2.41962	1.08305E-005	0.0852212	302.437
615.5000	-2.45577	-3.80471E-006	0.086081	302.608
615.0000	-2.29064	5.02144E-006	0.0867209	302.768
614.5000	-2.19286	2.13341E-005	0.0872477	302.933
614.0000	-2.26353	1.6591E-005	0.0878543	303.102
613.5000	-2.31838	-8.36902E-007	0.0886673	303.27
613.0000	-2.2237	1.64734E-005	0.0893344	303.439
612.5000	-2.40941	8.3367E-006	0.0901347	303.612
612.0000	-1.97539	3.06257E-005	0.0910627	303.785
611.5000	-2.09817	2.97548E-005	0.0922493	303.953
611.0000	-2.01194	2.51144E-005	0.0929353	304.123
610.5000	-1.7438	3.06706E-005	0.0934261	304.281
610.0000	-1.90694	5.37509E-006	0.093595	304.416
609.5000	-2.05436	-3.83026E-006	0.0945068	304.56
609.0000	-1.99626	-1.33609E-005	0.0954745	304.706
608.5000	-1.98651	-1.0588E-005	0.096728	304.844
608.0000	-1.9379	-8.8279E-007	0.0976298	304.979
607.5000	-1.95044	-1.2472E-005	0.0979519	305.098
607.0000	-1.67897	-1.93555E-005	0.0987723	305.229
606.5000	-1.71137	-3.27452E-005	0.0996923	305.357
606.0000	-1.65989	-1.45424E-005	0.101255	305.479
605.5000	-1.86466	-1.39239E-005	0.102552	305.605
605.0000	-1.82865	-1.02667E-006	0.104234	305.735
604.5000	-1.76717	9.54749E-006	0.10547	305.842
604.0000	-1.94301	6.91804E-006	0.106923	305.944
603.5000	-2.06235	1.18307E-005	0.108427	306.034
603.0000	-1.84452	2.79185E-005	0.109557	306.127
602.5000	-1.91694	2.32842E-005	0.111252	306.229
602.0000	-1.6922	3.53555E-005	0.11306	306.324
601.5000	-2.01767	4.33011E-005	0.114878	306.433
601.0000	-1.92376	3.28295E-005	0.116572	306.53
600.5000	-1.83628	3.51389E-005	0.11873	306.618
600.0000	-1.74708	4.34495E-005	0.120599	306.702
599.5000	-1.87427	4.57938E-005	0.123254	306.776
599.0000	-1.95542	6.53609E-005	0.12559	306.854
598.5000	-2.09541	6.95148E-005	0.128331	306.913
598.0000	-2.24563	7.89358E-005	0.130629	306.969
597.5000	-2.122	7.09721E-005	0.132691	307.02
597.0000	-1.94984	7.08801E-005	0.135003	307.066
596.5000	-1.99766	6.06756E-005	0.137574	307.113
596.0000	-2.00902	9.47227E-005	0.140217	307.16
595.5000	-1.9569	7.55283E-005	0.14275	307.214
595.0000	-2.07443	6.50338E-005	0.145429	307.242
594.5000	-2.0092	5.71321E-005	0.148239	307.282
594.0000	-1.82581	7.51647E-005	0.150527	307.325
593.5000	-1.69649	8.16845E-005	0.153382	307.367
593.0000	-1.54838	9.86689E-005	0.156745	307.426
592.5000	-1.44979	0.000120591	0.159613	307.504
592.0000	-1.39984	0.000125971	0.162531	307.609
591.5000	-1.29021	0.000111642	0.164968	307.696
591.0000	-1.16667	0.000143191	0.168037	307.8
590.5000	-0.912463	0.000150723	0.170956	307.93
590.0000	-0.575291	0.000144159	0.174145	308.078
589.5000	-0.233027	0.00015291	0.177544	308.23
589.0000	-0.19025	0.000150314	0.181201	308.413
588.5000	-0.0441717	0.000168282	0.184656	308.601
588.0000	0.157429	0.000160485	0.188634	308.824
587.5000	0.282413	0.00018382	0.192766	309.079
587.0000	0.837706	0.000209806	0.19703	309.383
586.5000	0.743238	0.000229267	0.200941	309.662
586.0000	0.847021	0.000250436	0.205648	309.968
585.5000	1.07789	0.00024538	0.20999	310.292
585.0000	1.51194	0.000276087	0.214318	310.63
584.5000	1.9065	0.000294611	0.21863	310.968
584.0000	2.17596	0.000313842	0.223643	311.35
583.5000	2.43436	0.000347924	0.228811	311.745
583.0000	2.76549	0.000357104	0.234472	312.167
582.5000	3.44049	0.000385555	0.24016	312.631
582.0000	3.52049	0.000398518	0.245914	313.099
581.5000	3.78605	0.000451246	0.252207	313.625
581.0000	4.0668	0.000484552	0.258849	314.16
580.5000	4.79019	0.000500409	0.265684	314.721
580.0000	5.42246	0.000533567	0.272258	315.276
579.5000	6.00813	0.000551926	0.278892	315.852
579.0000	6.90612	0.000601219	0.285637	316.429
578.5000	7.47141	0.000625425	0.293166	317.042
578.0000	8.46962	0.000651222	0.300828	317.7
577.5000	9.33327	0.000689575	0.308313	318.4
577.0000	9.83747	0.000746318	0.316657	319.098
576.5000	10.6592	0.000779482	0.325866	319.877
576.0000	11.751	0.000817999	0.334809	320.638
575.5000	12.8957	0.000849338	0.344385	321.448
575.0000	13.9845	0.000906425	0.353117	322.233
574.5000	15.1678	0.000956374	0.362749	323.077
574.0000	16.3392	0.000971972	0.372472	323.903
573.5000	17.6573	0.00102188	0.38239	324.762
573.0000	19.3249	0.00106031	0.39254	325.693
572.5000	20.6364	0.00110916	0.402093	326.575
572.0000	22.0614	0.0011619	0.41293	327.595
571.5000	23.6418	0.00122207	0.423738	328.59
571.0000	25.1014	0.00128839	0.43576	329.651
570.5000	26.6544	0.00132471	0.447547	330.746
570.0000	27.8819	0.00139209	0.458886	331.811
569.5000	29.4284	0.00144222	0.471362	332.929
569.0000	30.7247	0.00151135	0.483934	334.056
568.5000	32.057	0.00155267	0.495328	335.132
568.0000	33.7652	0.00161942	0.506836	336.252
567.5000	34.9366	0.00167085	0.518385	337.37
567.0000	36.2399	0.00170649	0.529951	338.454
566.5000	37.4699	0.00174814	0.541273	339.496
566.0000	38.5739	0.00180696	0.552418	340.522
565.5000	39.7826	0.00183403	0.563012	341.529
565.0000	40.5989	0.00186388	0.573559	342.499
564.5000	41.4631	0.00189531	0.583981	343.449
564.0000	42.3165	0.00192262	0.593708	344.301
563.5000	43.007	0.00194502	0.602678	345.109
563.0000	43.5115	0.00196879	0.611635	345.948
562.5000	43.549	0.00198432	0.619711	346.673
562.0000	43.9953	0.00200418	0.627553	347.371
561.5000	44.1507	0.00197094	0.636062	348.087
561.0000	44.1557	0.00194249	0.643483	348.732
560.5000	44.4075	0.00195471	0.650254	349.321
560.0000	44.2833	0.00190515	0.656837	349.861
559.5000	44.1755	0.00189508	0.663081	350.321
559.0000	43.7543	0.00186725	0.668328	350.701
558.5000	43.2546	0.00183928	0.672497	351.004
558.0000	42.9102	0.0017936	0.675918	351.24
557.5000	42.3503	0.0017611	0.679173	351.423
557.0000	41.2881	0.00172341	0.681958	351.542
556.5000	40.6283	0.00170747	0.683825	351.613
556.0000	39.8763	0.00164973	0.684631	351.626
555.5000	38.7376	0.00159616	0.685386	351.597
555.0000	38.2938	0.00154216	0.685701	351.501
554.5000	37.4833	0.00146929	0.68591	351.352
554.0000	36.7007	0.00141236	0.685114	351.157
553.5000	36.0826	0.00138475	0.683877	350.913
553.0000	35.5197	0.00135404	0.682475	350.663
552.5000	34.7362	0.00131945	0.681394	350.393
552.0000	34.0063	0.00126777	0.679819	350.066
551.5000	33.2589	0.00125044	0.678058	349.732
551.0000	32.5583	0.00123079	0.675665	349.375
550.5000	32.2089	0.00118583	0.673129	348.986
550.0000	31.6275	0.00117696	0.670645	348.574
549.5000	30.6599	0.00114826	0.668486	348.177
549.0000	30.347	0.00115849	0.665859	347.794
548.5000	30.0871	0.00114421	0.663297	347.43
548.0000	29.6422	0.00112996	0.661587	347.031
547.5000	29.4712	0.0011125	0.660041	346.675
547.0000	29.1104	0.00111356	0.658491	346.297
546.5000	29.1633	0.00113539	0.656775	345.968
546.0000	28.9181	0.00113296	0.654732	345.677
545.5000	28.9849	0.00116194	0.65398	345.41
545.0000	28.9575	0.00118379	0.653279	345.197
544.5000	28.8954	0.00118157	0.652593	344.974
544.0000	29.0627	0.00119512	0.65181	344.787
543.5000	29.0655	0.00120092	0.651496	344.637
543.0000	29.0761	0.00118797	0.651666	344.522
542.5000	29.3195	0.00120087	0.652418	344.438
542.0000	29.3597	0.00124152	0.653258	344.399
541.5000	29.5577	0.00126189	0.654376	344.409
541.0000	30.1135	0.0012637	0.655545	344.447
540.5000	30.6896	0.0012693	0.657553	344.499
540.0000	31.122	0.00129351	0.659971	344.578
539.5000	31.5758	0.00130655	0.662312	344.702
539.0000	31.8215	0.0013267	0.664939	344.894
538.5000	32.6795	0.00133276	0.668017	345.113
538.0000	33.2858	0.0013455	0.671613	345.341
537.5000	33.6529	0.00135077	0.675327	345.594
537.0000	34.1741	0.00136337	0.679164	345.883
536.5000	34.651	0.0013905	0.683267	346.185
536.0000	35.0428	0.00140833	0.688093	346.545
535.5000	35.7883	0.00141328	0.692783	346.9
535.0000	36.4874	0.00146087	0.69816	347.31
534.5000	36.9028	0.00147871	0.703226	347.699
534.0000	37.7433	0.00147829	0.708762	348.142
533.5000	38.2566	0.00151588	0.71432	348.611
533.0000	38.7198	0.00152712	0.719545	349.056
532.5000	38.8308	0.00154767	0.725044	349.538
532.0000	39.0401	0.00153417	0.730929	350.047
531.5000	39.4824	0.00154573	0.736962	350.557
531.0000	39.4638	0.00155592	0.743895	351.099
530.5000	39.9552	0.001552	0.7503	351.628
530.0000	40.0408	0.00156571	0.756803	352.185
529.5000	39.9969	0.00158119	0.763214	352.734
529.0000	39.9397	0.00157499	0.76937	353.227
528.5000	39.8627	0.00156559	0.775433	353.733
528.0000	40.062	0.00154121	0.781218	354.213
527.5000	40.0513	0.00154499	0.787283	354.696
527.0000	39.7898	0.00153038	0.793941	355.229
526.5000	39.1743	0.00148191	0.799854	355.72
526.0000	38.7455	0.00145082	0.806188	356.224
525.5000	37.9811	0.00142028	0.81225	356.696
525.0000	37.2275	0.0013922	0.81796	357.136
524.5000	36.3228	0.00135774	0.823382	357.532
524.0000	35.6597	0.00132038	0.828233	357.874
523.5000	34.5931	0.00128768	0.83301	358.242
523.0000	33.9866	0.00123273	0.837523	358.582
522.5000	32.987	0.00119143	0.841522	358.896
522.0000	32.0435	0.0011552	0.845677	359.196
521.5000	30.7011	0.00108484	0.849923	359.482
521.0000	29.6398	0.00103635	0.853715	359.74
520.5000	28.6497	0.00100176	0.857517	360
520.0000	27.5284	0.0009278	0.860839	360.221
519.5000	26.471	0.000889127	0.864191	360.414
519.0000	25.6195	0.000849137	0.867149	360.594
518.5000	24.5956	0.000813983	0.869606	360.754
518.0000	23.8064	0.000791968	0.872349	360.907
517.5000	22.4895	0.00075277	0.875103	361.053
517.0000	21.6121	0.000690565	0.877952	361.184
516.5000	20.7115	0.000648544	0.880864	361.318
516.0000	20.0107	0.000603371	0.883631	361.46
515.5000	19.5221	0.000575741	0.886019	361.612
515.0000	18.579	0.000530471	0.888213	361.731
514.5000	17.9301	0.00051812	0.890346	361.858
514.0000	17.3626	0.00046843	0.892333	361.959
513.5000	16.9343	0.000438682	0.894455	362.066
513.0000	16.4517	0.000415527	0.896241	362.175
512.5000	15.5421	0.000381232	0.898605	362.32
512.0000	14.931	0.000358849	0.900728	362.432
511.5000	14.2196	0.000320098	0.902596	362.557
511.0000	13.2792	0.000272511	0.904586	362.676
510.5000	12.6346	0.000223722	0.906781	362.791
510.0000	11.8381	0.000196513	0.9089	362.901
509.5000	11.311	0.000151647	0.910866	363.011
509.0000	10.9477	0.00012858	0.912537	363.102
508.5000	10.2731	7.91686E-005	0.914148	363.176
508.0000	9.72276	2.5633E-005	0.915937	363.234
507.5000	9.04761	9.25316E-006	0.917722	363.283
507.0000	8.40394	4.70796E-006	0.919671	363.343
506.5000	7.8535	-3.32939E-005	0.921554	363.401
506.0000	7.42956	-5.66422E-005	0.922987	363.455
505.5000	6.59625	-0.000100479	0.924395	363.504
505.0000	6.06887	-0.000156202	0.925942	363.559
504.5000	5.28601	-0.00021113	0.927429	363.594
504.0000	4.76594	-0.000258785	0.928522	363.592
503.5000	4.39177	-0.000275699	0.929429	363.575
503.0000	3.59354	-0.00027739	0.930213	363.527
502.5000	3.28491	-0.000286396	0.930675	363.464
502.0000	2.26056	-0.000317319	0.931048	363.399
501.5000	1.51388	-0.000364019	0.931339	363.305
501.0000	0.733316	-0.000395188	0.931536	363.187
500.5000	0.0510322	-0.000408634	0.931817	363.052
500.0000	-0.717272	-0.000436038	0.931739	362.86
499.5000	-1.34315	-0.000484408	0.930937	362.614
499.0000	-2.45663	-0.000551403	0.929606	362.236
498.5000	-3.23192	-0.000592175	0.928018	361.747
498.0000	-4.29893	-0.000642113	0.92613	361.132
497.5000	-5.6999	-0.00071024	0.92437	360.362
497.0000	-6.61748	-0.000723023	0.923059	359.543
496.5000	-7.61705	-0.000758003	0.922108	358.69
496.0000	-8.63999	-0.000791624	0.922358	358.026
495.5000	-9.40119	-0.00083294	0.923056	357.547
495.0000	-10.3185	-0.000889919	0.922815	357.191
494.5000	-11.4203	-0.000958402	0.921801	356.861
494.0000	-12.1219	-0.00101263	0.920412	356.538
493.5000	-12.822	-0.00105907	0.918752	356.184
493.0000	-13.6698	-0.0011133	0.917227	355.858
492.5000	-14.5212	-0.00114459	0.915704	355.535
492.0000	-15.539	-0.0012242	0.913891	355.196
491.5000	-16.5126	-0.00127118	0.912033	354.898
491.0000	-17.476	-0.00131494	0.91034	354.618
490.5000	-18.0663	-0.00135032	0.908567	354.369
490.0000	-18.6134	-0.00140369	0.906692	354.162
489.5000	-18.8565	-0.00144789	0.904769	354.014
489.0000	-19.7663	-0.00148929	0.902487	353.855
488.5000	-20.56	-0.00151526	0.8995	353.637
488.0000	-20.8179	-0.00156959	0.895345	353.22
487.5000	-21.6689	-0.00164	0.89041	352.553
487.0000	-22.3725	-0.0016717	0.886395	351.784
486.5000	-22.9256	-0.00170631	0.882293	350.882
486.0000	-23.499	-0.00173547	0.878483	349.962
485.5000	-24.0052	-0.00179054	0.875888	349.055
485.0000	-24.6153	-0.00181251	0.874077	348.235
484.5000	-25.151	-0.0018612	0.871896	347.56
484.0000	-25.7601	-0.00188982	0.869059	346.954
483.5000	-26.6194	-0.00192594	0.866162	346.431
483.0000	-26.9813	-0.00195035	0.862584	345.92
482.5000	-27.2613	-0.00198531	0.858901	345.488
482.0000	-27.8596	-0.00200802	0.854939	345.085
481.5000	-28.2892	-0.00203878	0.85114	344.698
481.0000	-28.7868	-0.00205504	0.847495	344.335
480.5000	-28.8692	-0.00205595	0.843699	344.002
480.0000	-29.1939	-0.00208021	0.839509	343.671
479.5000	-29.849	-0.00208034	0.835013	343.317
479.0000	-30.1956	-0.00209719	0.828929	342.827
478.5000	-30.3595	-0.00211654	0.822181	342.085
478.0000	-30.3479	-0.00213282	0.816518	341.102
477.5000	-30.4696	-0.00212173	0.813944	340.275
477.0000	-30.8499	-0.0021105	0.81181	339.679
476.5000	-30.9406	-0.00211555	0.806331	339.007
476.0000	-30.994	-0.00212936	0.799303	338.114
475.5000	-31.1205	-0.00213216	0.791893	336.979
475.0000	-30.9293	-0.00210816	0.784597	335.647
474.5000	-31.009	-0.00211288	0.778359	334.246
474.0000	-30.9656	-0.00210803	0.7726	332.719
473.5000	-30.9672	-0.00210668	0.766216	330.956
473.0000	-31.1588	-0.00210758	0.759698	329.026
472.5000	-31.1494	-0.00210602	0.75424	326.984
472.0000	-31.2629	-0.00210089	0.751487	325.297
471.5000	-30.9178	-0.00209204	0.749537	323.961
471.0000	-30.6197	-0.00208435	0.747771	323.156
470.5000	-30.3432	-0.00208196	0.745903	322.64
470.0000	-30.3101	-0.00208387	0.743469	322.443
469.5000	-30.477	-0.00208803	0.738357	322.277
469.0000	-30.5195	-0.00211266	0.728925	321.719
468.5000	-30.218	-0.00210281	0.719491	320.76
468.0000	-29.9368	-0.00208275	0.712784	319.745
467.5000	-29.7831	-0.00209008	0.707959	318.887
467.0000	-29.5033	-0.00208572	0.7043	318.242
466.5000	-29.2844	-0.00205483	0.701263	317.824
466.0000	-29.0271	-0.00203577	0.697217	317.57
465.5000	-28.9373	-0.00202284	0.69284	317.533
465.0000	-28.5726	-0.00199852	0.688056	317.762
464.5000	-28.0939	-0.00198132	0.681747	318.141
464.0000	-27.8511	-0.00199692	0.672997	318.355
463.5000	-27.4945	-0.00198222	0.662586	318.202
463.0000	-27.4895	-0.00196862	0.652543	317.721
462.5000	-27.5235	-0.00195074	0.644168	317.085
462.0000	-27.4064	-0.00191844	0.637293	316.431
461.5000	-26.8408	-0.00189317	0.631117	315.869
461.0000	-26.4177	-0.00186457	0.625135	315.437
460.5000	-25.9156	-0.00181939	0.618681	315.114
460.0000	-25.771	-0.00179551	0.612282	314.881
459.5000	-25.3293	-0.00178534	0.605416	314.694
459.0000	-24.8747	-0.00174346	0.597369	314.438
458.5000	-24.4409	-0.00172888	0.588829	314.091
458.0000	-24.3034	-0.00173077	0.579815	313.592
457.5000	-23.9527	-0.00171093	0.570657	312.874
457.0000	-23.4631	-0.00168841	0.561899	311.964
456.5000	-23.0786	-0.00165823	0.554923	311.104
456.0000	-22.6098	-0.00161152	0.547473	310.313
455.5000	-22.078	-0.00156545	0.537914	309.345
455.0000	-21.6701	-0.00154128	0.529051	308.263
454.5000	-21.3087	-0.00150909	0.522473	307.268
454.0000	-20.7205	-0.00148847	0.516701	306.523
453.5000	-20.1529	-0.00145096	0.509504	305.946
453.0000	-19.6814	-0.00143621	0.501678	305.379
452.5000	-19.461	-0.00141478	0.493919	304.775
452.0000	-19.1253	-0.00140032	0.486404	304.133
451.5000	-18.3709	-0.00137443	0.478578	303.466
451.0000	-18.0528	-0.00133877	0.471199	302.833
450.5000	-17.6914	-0.00131068	0.46358	302.163
450.0000	-17.3281	-0.00129426	0.45676	301.519
449.5000	-17.0265	-0.00125041	0.450751	300.987
449.0000	-16.5398	-0.00122464	0.445303	300.631
448.5000	-16.3119	-0.00120942	0.438217	300.268
448.0000	-15.8699	-0.00119723	0.430532	299.788
447.5000	-15.6635	-0.00119131	0.424475	299.332
447.0000	-15.4373	-0.0011585	0.420384	299.123
446.5000	-15.0925	-0.00112667	0.415668	299.077
446.0000	-14.7162	-0.00111963	0.407747	298.86
445.5000	-14.3246	-0.00110175	0.399471	298.34
445.0000	-13.9161	-0.00106875	0.392397	297.66
444.5000	-13.553	-0.00103186	0.385862	296.954
444.0000	-13.0436	-0.0010191	0.379592	296.246
443.5000	-12.772	-0.000998322	0.373293	295.469
443.0000	-12.5271	-0.00096465	0.36821	294.792
442.5000	-12.2418	-0.00094495	0.363247	294.136
442.0000	-11.979	-0.000920376	0.358693	293.591
441.5000	-11.4123	-0.000895352	0.353363	293.005
441.0000	-11.188	-0.000875806	0.348503	292.481
440.5000	-11.2692	-0.000855541	0.343606	291.957
440.0000	-10.9674	-0.000832973	0.338649	291.432
439.5000	-10.6222	-0.00080289	0.333491	290.896
439.0000	-10.2446	-0.000761692	0.327891	290.325
438.5000	-9.72985	-0.000742979	0.322001	289.75
438.0000	-9.4572	-0.000719906	0.315916	289.177
437.5000	-9.0068	-0.000702731	0.310259	288.634
437.0000	-8.58817	-0.000678005	0.30434	288.087
436.5000	-8.43238	-0.000671963	0.299825	287.635
436.0000	-8.3117	-0.000641835	0.295641	287.23
435.5000	-7.97396	-0.000609188	0.290891	286.839
435.0000	-7.82792	-0.000597755	0.285749	286.449
434.5000	-7.4838	-0.000580341	0.280638	286.065
434.0000	-7.18227	-0.000562193	0.275521	285.647
433.5000	-7.2671	-0.000547591	0.270815	285.238
433.0000	-7.11483	-0.000536629	0.266332	284.797
432.5000	-6.79058	-0.000519905	0.262107	284.376
432.0000	-6.4625	-0.000493386	0.257405	283.916
431.5000	-6.16613	-0.000474405	0.252814	283.456
431.0000	-5.90077	-0.000461189	0.24841	283
430.5000	-5.72681	-0.000434472	0.244127	282.545
430.0000	-5.69247	-0.000426716	0.240369	282.123
429.5000	-5.68109	-0.000412001	0.236289	281.677
429.0000	-5.66238	-0.00039487	0.232317	281.236
428.5000	-5.53119	-0.000372257	0.228362	280.804
428.0000	-5.3106	-0.000355552	0.223863	280.35
427.5000	-5.14465	-0.000352357	0.219978	279.93
427.0000	-5.12853	-0.000334846	0.216365	279.525
426.5000	-4.89045	-0.000321839	0.212932	279.127
426.0000	-4.76322	-0.000307793	0.209306	278.693
425.5000	-4.46351	-0.000292082	0.205908	278.241
425.0000	-4.3119	-0.00027589	0.20234	277.765
424.5000	-4.06223	-0.000263347	0.198772	277.256
424.0000	-3.77037	-0.000253216	0.195627	276.769
423.5000	-3.62769	-0.000247787	0.193223	276.351
423.0000	-3.65035	-0.00024392	0.190584	275.977
422.5000	-3.58617	-0.000231243	0.187846	275.652
422.0000	-3.61796	-0.000227499	0.184873	275.336
421.5000	-3.30708	-0.000218832	0.181906	275.029
421.0000	-2.8601	-0.000203926	0.179154	274.737
420.5000	-2.6335	-0.000184401	0.176438	274.452
420.0000	-2.5341	-0.000168243	0.173967	274.174
419.5000	-2.39005	-0.000165955	0.171692	273.895
419.0000	-2.37137	-0.000159817	0.16939	273.624
418.5000	-2.19948	-0.000158472	0.166957	273.377
418.0000	-2.21626	-0.000143461	0.164783	273.132
417.5000	-2.1447	-0.000125584	0.162477	272.893
417.0000	-2.14863	-0.000134175	0.160687	272.686
416.5000	-1.90531	-0.000126523	0.159184	272.541
416.0000	-1.91129	-0.000116015	0.157392	272.433
415.5000	-1.81863	-0.000106652	0.155256	272.309
415.0000	-1.70936	-0.000102081	0.153079	272.145
414.5000	-1.58989	-9.76069E-005	0.151132	271.928
414.0000	-1.49977	-7.36147E-005	0.149647	271.711
413.5000	-1.28957	-5.28034E-005	0.148485	271.504
413.0000	-1.40442	-5.30825E-005	0.147404	271.317
412.5000	-1.35792	-5.23353E-005	0.146416	271.162
412.0000	-1.24463	-4.99362E-005	0.145337	271.009
411.5000	-1.09644	-5.16613E-005	0.143881	270.846
411.0000	-1.00357	-4.47857E-005	0.142637	270.706
410.5000	-0.917617	-3.36205E-005	0.1417	270.585
410.0000	-0.882944	-2.50397E-005	0.140945	270.48
409.5000	-0.758333	-2.07997E-005	0.140281	270.395
409.0000	-0.682593	-1.30622E-005	0.139553	270.322
408.5000	-0.553234	2.51574E-006	0.138584	270.256
408.0000	-0.536053	2.42165E-007	0.137461	270.191
407.5000	-0.413001	-1.06247E-007	0.136284	270.114
407.0000	-0.306068	9.65213E-007	0.135409	270.037
406.5000	-0.383014	5.54508E-006	0.134566	269.949
406.0000	-0.23849	1.60032E-005	0.133766	269.86
405.5000	-0.192209	4.83165E-006	0.1328	269.763
405.0000	-0.199375	1.38485E-006	0.131896	269.648
404.5000	-0.203286	9.91333E-006	0.13103	269.517
404.0000	-0.319202	1.34488E-005	0.130453	269.357
403.5000	-0.468329	3.02386E-005	0.129916	269.176
403.0000	-0.508661	3.92182E-005	0.129757	268.986
402.5000	-0.348172	3.78719E-005	0.12914	268.771
402.0000	-0.404708	4.49811E-005	0.129107	268.578
401.5000	-0.355283	4.57505E-005	0.129168	268.364
401.0000	-0.412522	5.0243E-005	0.129077	268.176
400.5000	-0.360745	5.79415E-005	0.128992	268
400.0000	-0.453223	6.77974E-005	0.128915	267.857
399.5000	-0.420123	6.5391E-005	0.129345	267.724
399.0000	-0.433017	7.62586E-005	0.129718	267.618
398.5000	-0.503193	7.51817E-005	0.129669	267.509
398.0000	-0.407183	7.76359E-005	0.129847	267.445
397.5000	-0.528122	7.21258E-005	0.129938	267.399
397.0000	-0.425956	7.8413E-005	0.130455	267.386
396.5000	-0.353205	8.26417E-005	0.130832	267.409
396.0000	-0.361515	7.91883E-005	0.131344	267.461
395.5000	-0.239917	6.62546E-005	0.131337	267.525
395.0000	-0.186889	6.62169E-005	0.131513	267.62
394.5000	-0.0490929	6.22166E-005	0.131822	267.742
394.0000	-0.0659057	6.5992E-005	0.132059	267.879
393.5000	0.0530195	6.90276E-005	0.132178	268.049
393.0000	0.0241099	5.89408E-005	0.132225	268.238
392.5000	0.231923	7.39376E-005	0.132432	268.417
392.0000	0.350754	6.65659E-005	0.132888	268.583
391.5000	0.31038	7.05662E-005	0.133408	268.72
391.0000	0.281658	6.91797E-005	0.1339	268.856
390.5000	0.368443	6.94215E-005	0.134056	268.974
390.0000	0.388414	6.97969E-005	0.134424	269.1
389.5000	0.462989	8.08901E-005	0.135013	269.207
389.0000	0.396489	8.04279E-005	0.135824	269.312
388.5000	0.356165	8.41119E-005	0.136243	269.399
388.0000	0.336628	9.16527E-005	0.13658	269.485
387.5000	0.350243	0.000109581	0.137166	269.562
387.0000	0.277836	0.000123971	0.138212	269.635
386.5000	0.136739	0.000120649	0.139232	269.716
386.0000	0.00257457	0.000122067	0.140392	269.793
385.5000	-0.0101169	0.000113181	0.141549	269.865
385.0000	-0.0439773	0.000108857	0.142501	269.913
384.5000	-0.274267	9.65089E-005	0.143392	269.955
384.0000	-0.485073	9.59793E-005	0.1445	270.003
383.5000	-0.396232	0.000110607	0.145369	270.054
383.0000	-0.331667	9.12886E-005	0.146108	270.106
382.5000	-0.26453	9.71066E-005	0.146968	270.161
382.0000	-0.324215	0.00010906	0.148378	270.226
381.5000	-0.338034	9.51724E-005	0.149878	270.289
381.0000	-0.406818	0.000114783	0.151157	270.36
380.5000	-0.24769	0.00010555	0.152068	270.415
380.0000	-0.183405	0.000102015	0.153277	270.475
379.5000	-0.191963	9.9486E-005	0.154602	270.543
379.0000	-0.185501	9.06924E-005	0.155689	270.621
378.5000	-0.105618	8.80128E-005	0.156283	270.684
378.0000	0.00843041	7.95973E-005	0.156879	270.741
377.5000	0.161259	8.40607E-005	0.157674	270.802
377.0000	0.196558	9.8339E-005	0.15823	270.843
376.5000	0.295813	0.000116499	0.159225	270.899
376.0000	0.3643	0.000121696	0.160125	270.94
375.5000	0.505591	0.000127665	0.160669	270.967
375.0000	0.566257	0.000132585	0.161255	270.989
374.5000	0.437696	0.00013267	0.16193	271.012
374.0000	0.370894	0.000130453	0.162497	271.021
373.5000	0.364413	0.000123901	0.163057	271.038
373.0000	0.335964	0.000114897	0.163361	271.052
372.5000	0.462307	0.000117558	0.163682	271.061
372.0000	0.46649	0.000117315	0.164273	271.087
371.5000	0.472238	0.000121725	0.164668	271.104
371.0000	0.445008	0.000117687	0.165328	271.13
370.5000	0.461469	0.000124183	0.165991	271.15
370.0000	0.466955	0.000124193	0.166596	271.18
369.5000	0.509326	0.000124036	0.167147	271.212
369.0000	0.447436	0.000119865	0.167675	271.243
368.5000	0.424597	0.000112236	0.168621	271.305
368.0000	0.311788	9.51937E-005	0.169239	271.363
367.5000	0.208159	8.93725E-005	0.17003	271.43
367.0000	0.314688	8.81562E-005	0.171091	271.507
366.5000	0.394552	8.71818E-005	0.171921	271.591
366.0000	0.337144	0.000100786	0.172905	271.7
365.5000	0.37278	0.000100373	0.17362	271.787
365.0000	0.519702	0.000108289	0.174178	271.872
364.5000	0.539616	0.000103535	0.174847	271.946
364.0000	0.47179	0.000106586	0.175371	272.025
363.5000	0.617973	0.000107598	0.176363	272.118
363.0000	0.625798	8.69532E-005	0.177439	272.222
362.5000	0.585737	9.11532E-005	0.178245	272.315
362.0000	0.850085	8.57912E-005	0.179075	272.413
361.5000	0.858573	9.99271E-005	0.18023	272.523
361.0000	0.769102	0.000108043	0.181176	272.617
360.5000	0.76176	9.77466E-005	0.181861	272.709
360.0000	0.820413	9.77882E-005	0.182543	272.791
359.5000	0.925727	9.13718E-005	0.18322	272.88
359.0000	0.983189	8.13927E-005	0.183552	272.958
358.5000	0.910694	6.83948E-005	0.183853	273.045
358.0000	0.858878	5.98091E-005	0.184142	273.127
357.5000	0.973784	6.02546E-005	0.184381	273.206
357.0000	1.01269	3.71233E-005	0.185012	273.297
356.5000	0.97183	3.98459E-005	0.185896	273.382
356.0000	1.10511	2.73272E-005	0.186455	273.471
355.5000	1.10249	1.65477E-005	0.186877	273.549
355.0000	0.934575	3.11782E-006	0.187107	273.621
354.5000	0.997931	1.10492E-005	0.187378	273.698
354.0000	0.96822	5.75565E-006	0.187858	273.784
353.5000	0.863011	5.15334E-006	0.188284	273.865
353.0000	0.829526	-2.43596E-006	0.188533	273.937
352.5000	0.917104	-1.26718E-005	0.189024	274.029
352.0000	1.03689	-1.57879E-005	0.189568	274.124
351.5000	1.07778	-2.22465E-005	0.190178	274.221
351.0000	1.18726	-2.74064E-005	0.191025	274.311
350.5000	1.22306	-4.21554E-005	0.19197	274.398
350.0000	1.1924	-5.56644E-005	0.193039	274.493
349.5000	1.19073	-6.74352E-005	0.194161	274.586
349.0000	1.26115	-7.30516E-005	0.195451	274.685
348.5000	1.13408	-6.29115E-005	0.196782	274.781
348.0000	1.08575	-7.91855E-005	0.197797	274.872
347.5000	1.00257	-8.08494E-005	0.19908	274.961
347.0000	0.938481	-8.70601E-005	0.200383	275.049
346.5000	0.89294	-9.60279E-005	0.201477	275.135
346.0000	0.958273	-0.000107885	0.202463	275.219
345.5000	1.05108	-0.00012958	0.203531	275.295
345.0000	0.893238	-0.000149923	0.204802	275.386
344.5000	1.10119	-0.000156189	0.205912	275.462
344.0000	1.06169	-0.000178313	0.207268	275.544
343.5000	1.0264	-0.000186879	0.208245	275.615
343.0000	0.992286	-0.000207236	0.209131	275.687
342.5000	0.900318	-0.000202865	0.210048	275.775
342.0000	0.891637	-0.000200641	0.210916	275.862
341.5000	1.02741	-0.000194945	0.211739	275.937
341.0000	1.18331	-0.000179122	0.212838	276.017
340.5000	1.19546	-0.000199816	0.2137	276.101
340.0000	1.21603	-0.000208659	0.21455	276.187
339.5000	1.38047	-0.000217479	0.21512	276.271
339.0000	1.43296	-0.000227344	0.216175	276.373
338.5000	1.56498	-0.000223228	0.217306	276.475
338.0000	1.61081	-0.000225467	0.218377	276.578
337.5000	1.54767	-0.000215971	0.219468	276.69
337.0000	1.73628	-0.000231467	0.220529	276.808
336.5000	1.85721	-0.000241213	0.22164	276.912
336.0000	1.91716	-0.000234633	0.22256	277.011
335.5000	2.10947	-0.000230839	0.223546	277.115
335.0000	2.06596	-0.000241269	0.224645	277.228
334.5000	2.19618	-0.000253152	0.225782	277.355
334.0000	2.36678	-0.000274456	0.226971	277.474
333.5000	2.53623	-0.000283007	0.228559	277.598
333.0000	2.51351	-0.000298502	0.229811	277.723
332.5000	2.353	-0.000324688	0.230773	277.849
332.0000	2.55207	-0.000327514	0.231793	277.973
331.5000	2.70759	-0.000334689	0.233164	278.109
331.0000	2.6707	-0.000336688	0.234663	278.253
330.5000	2.58545	-0.000343242	0.235763	278.381
330.0000	2.37129	-0.000364529	0.236976	278.511
329.5000	2.47341	-0.000377964	0.23823	278.645
329.0000	2.42914	-0.000425365	0.239376	278.78
328.5000	2.24811	-0.000428939	0.24054	278.905
328.0000	2.15684	-0.000438677	0.241569	279.027
327.5000	1.94186	-0.000476341	0.242991	279.167
327.0000	2.00178	-0.000495758	0.244387	279.281
326.5000	2.02157	-0.000513196	0.245997	279.412
326.0000	1.6929	-0.000533516	0.247834	279.56
325.5000	1.73895	-0.000546373	0.249441	279.708
325.0000	1.50177	-0.0005795	0.250799	279.864
324.5000	1.54598	-0.000600058	0.252538	280.041
324.0000	1.61951	-0.000627712	0.254491	280.221
323.5000	1.3823	-0.000659166	0.256449	280.391
323.0000	1.29829	-0.000688214	0.258144	280.561
322.5000	1.139	-0.000718119	0.259961	280.747
322.0000	1.2764	-0.00074567	0.26166	280.934
321.5000	1.38927	-0.000759418	0.263662	281.127
321.0000	1.3232	-0.00077934	0.265774	281.327
320.5000	1.43751	-0.000791618	0.267847	281.518
320.0000	1.59258	-0.000793261	0.26975	281.708
319.5000	1.63718	-0.000809634	0.271678	281.899
319.0000	1.61648	-0.000819499	0.273529	282.108
318.5000	1.42425	-0.000834968	0.275634	282.35
318.0000	1.41972	-0.000854555	0.277453	282.56
317.5000	1.41722	-0.000868564	0.279233	282.748
317.0000	1.20642	-0.000876207	0.281321	282.937
316.5000	1.0363	-0.000892263	0.283412	283.112
316.0000	1.00081	-0.000910449	0.285696	283.309
315.5000	0.966699	-0.000916922	0.287523	283.496
315.0000	1.03522	-0.000922816	0.28949	283.708
314.5000	0.939978	-0.000938657	0.291492	283.924
314.0000	0.998107	-0.000924445	0.293517	284.132
313.5000	0.953966	-0.000943476	0.295768	284.357
313.0000	1.16754	-0.000948633	0.29811	284.602
312.5000	1.15474	-0.000966185	0.30022	284.836
312.0000	0.868909	-0.000988959	0.302587	285.076
311.5000	0.673495	-0.0010146	0.304997	285.331
311.0000	0.725862	-0.00102331	0.307817	285.602
310.5000	0.635437	-0.00104527	0.310357	285.889
310.0000	0.673952	-0.00105958	0.313044	286.167
309.5000	0.667125	-0.00107359	0.31588	286.457
309.0000	0.715956	-0.00109817	0.319075	286.787
308.5000	0.760375	-0.00112224	0.322053	287.127
308.0000	0.961502	-0.0011226	0.324921	287.451
307.5000	0.906561	-0.00115109	0.328404	287.827
307.0000	1.00657	-0.00115723	0.331999	288.193
306.5000	0.941773	-0.00117491	0.335795	288.58
306.0000	0.989202	-0.00120073	0.339772	288.97
305.5000	0.741588	-0.00124443	0.343922	289.406
305.0000	0.60575	-0.00127637	0.348052	289.828
304.5000	0.306432	-0.00129635	0.352859	290.3
304.0000	0.266386	-0.00131837	0.357941	290.791
303.5000	0.28205	-0.00132729	0.363264	291.306
303.0000	0.311985	-0.00134345	0.368788	291.864
302.5000	0.105772	-0.00136554	0.374508	292.447
302.0000	0.0540457	-0.00138656	0.380637	293.05
301.5000	-0.183043	-0.00141156	0.387034	293.676
301.0000	-0.134143	-0.0014312	0.393343	294.316
300.5000	-0.105179	-0.00143797	0.39908	294.902
300.0000	-0.217654	-0.0014638	0.406389	295.613
299.5000	-0.434345	-0.00147268	0.41315	296.285
299.0000	-0.55012	-0.00149938	0.41986	296.967
298.5000	-0.697836	-0.00153487	0.426761	297.68
298.0000	-0.621544	-0.00154568	0.433442	298.362
297.5000	-0.473404	-0.00154281	0.440298	299.056
297.0000	-0.401177	-0.00152902	0.446777	299.67
296.5000	-0.365711	-0.00153258	0.452879	300.268
296.0000	-0.31312	-0.0015362	0.458907	300.864
295.5000	-0.45107	-0.00152819	0.464911	301.431
295.0000	-0.286108	-0.00152211	0.470403	301.933
294.5000	-0.301465	-0.00150915	0.475863	302.444
294.0000	-0.189091	-0.00148783	0.481249	302.992
293.5000	0.0123234	-0.00147897	0.485522	303.445
293.0000	0.169837	-0.00143687	0.49007	303.918
292.5000	0.222828	-0.0014256	0.494478	304.4
292.0000	0.256695	-0.00138949	0.498311	304.837
291.5000	0.350341	-0.00137063	0.502003	305.249
291.0000	0.437859	-0.00134149	0.50552	305.641
290.5000	0.308856	-0.00132421	0.509236	306.047
290.0000	0.158078	-0.0012929	0.512953	306.434
289.5000	-0.000636606	-0.00126269	0.516102	306.794
289.0000	-0.278486	-0.00123846	0.519228	307.159
288.5000	-0.403324	-0.00122512	0.522673	307.567
288.0000	-0.660882	-0.00118265	0.525886	307.956
287.5000	-0.480185	-0.00115176	0.529311	308.378
287.0000	-0.812309	-0.00112954	0.532766	308.845
286.5000	-0.808918	-0.00109289	0.535904	309.301
286.0000	-1.07252	-0.0010709	0.539122	309.728
285.5000	-1.03872	-0.00103675	0.542635	310.134
285.0000	-1.25661	-0.00100442	0.546432	310.573
284.5000	-1.54224	-0.000985182	0.549893	310.981
284.0000	-1.64832	-0.000953235	0.553774	311.43
283.5000	-1.72803	-0.000928926	0.557886	311.89
283.0000	-2.06704	-0.000900253	0.56181	312.336
282.5000	-2.29805	-0.000853997	0.566217	312.828
282.0000	-2.41282	-0.000801358	0.570587	313.35
281.5000	-2.55644	-0.000748497	0.574742	313.854
281.0000	-2.61236	-0.000704771	0.579348	314.383
280.5000	-2.8077	-0.000649407	0.58419	314.962
280.0000	-2.70909	-0.000587564	0.589312	315.566
279.5000	-2.85898	-0.00054507	0.594673	316.206
279.0000	-3.29593	-0.000518381	0.599872	316.838
278.5000	-3.54322	-0.000464969	0.605733	317.534
278.0000	-3.97501	-0.000439009	0.612802	318.314
277.5000	-4.08082	-0.000385734	0.619478	319.053
277.0000	-4.49265	-0.000340693	0.626758	319.885
276.5000	-4.4581	-0.000265506	0.634295	320.761
276.0000	-4.42086	-0.000220214	0.641558	321.595
275.5000	-4.83074	-0.000175488	0.650214	322.557
275.0000	-5.03146	-0.000141341	0.659416	323.584
274.5000	-5.13387	-0.000100249	0.668873	324.662
274.0000	-5.25445	-5.65148E-005	0.67919	325.866
273.5000	-5.58087	-3.53309E-005	0.689273	327.008
273.0000	-5.80571	2.15322E-005	0.700731	328.298
272.5000	-6.09939	6.98217E-005	0.712703	329.656
272.0000	-6.27427	9.75971E-005	0.725145	331.085
271.5000	-6.58182	0.000129505	0.739026	332.681
271.0000	-6.82092	0.000197788	0.753302	334.289
270.5000	-6.98753	0.000243966	0.768475	335.983
270.0000	-6.83363	0.000289197	0.784133	337.772
269.5000	-7.17706	0.000326704	0.800168	339.646
269.0000	-7.50444	0.000367784	0.816387	341.531
268.5000	-7.84084	0.000398073	0.834401	343.617
268.0000	-8.30547	0.000439352	0.853436	345.816
267.5000	-8.53552	0.000482507	0.873247	348.122
267.0000	-8.85193	0.000516625	0.894786	350.674
266.5000	-8.86524	0.000586644	0.917126	353.355
266.0000	-9.10183	0.00061572	0.938477	355.877
265.5000	-8.82503	0.000655619	0.961765	358.612
265.0000	-8.37585	0.000708842	0.986491	361.578
264.5000	-8.34497	0.000716081	1.01028	364.479
264.0000	-8.07227	0.000751073	1.03451	367.451
263.5000	-7.57966	0.000783224	1.06043	370.619
263.0000	-7.39498	0.000788069	1.08403	373.528
262.5000	-6.41912	0.000798206	1.10995	376.788
262.0000	-5.74806	0.000806223	1.13458	379.952
261.5000	-4.87211	0.000822396	1.15964	383.159
261.0000	-3.84654	0.000826683	1.18408	386.254
260.5000	-2.90126	0.000856295	1.2098	389.555
260.0000	-1.96534	0.000871972	1.23586	392.939
259.5000	-1.13644	0.000862205	1.26215	396.392
259.0000	-0.490694	0.000876734	1.28876	399.939
258.5000	0.940693	0.000886643	1.31622	403.579
258.0000	2.37526	0.000906544	1.34433	407.326
257.5000	3.35045	0.000907314	1.37164	410.987
257.0000	4.37034	0.00092224	1.40132	414.993
256.5000	5.29797	0.000908471	1.4306	418.957
256.0000	6.51241	0.000887171	1.46264	423.3
255.5000	7.65086	0.000847869	1.49589	427.819
255.0000	9.28065	0.000857372	1.53037	432.549
254.5000	10.3308	0.000812408	1.56425	437.231
254.0000	10.3458	0.000834383	1.59933	442.107
253.5000	11.546	0.000858999	1.63998	447.732
253.0000	12.5431	0.000784886	1.67777	453.036
252.5000	12.7356	0.000740438	1.73513	461.229
252.0000	15.192	0.000760101	1.78446	468.335
251.5000	16.8581	0.000739996	1.82868	474.749
251.0000	16.9814	0.000725707	1.87455	481.418
250.5000	18.0414	0.000670232	1.92153	488.348
250.0000	17.0731	0.000635677	1.96703	495.154
249.5000	18.0134	0.000569508	2.01365	502.208
249.0000	19.6357	0.00043428	2.06406	509.91
248.5000	19.9944	0.000258243	2.11342	517.502
248.0000	21.7181	0.000201877	2.16674	525.812
247.5000	22.7942	0.000158598	2.21878	534.046
247.0000	23.9735	9.07424E-005	2.27489	543.053
246.5000	24.0152	6.70527E-005	2.33301	552.474
246.0000	24.8799	-0.000274573	2.39309	562.32
245.5000	27.4928	-0.000298127	2.45745	573.095
245.0000	28.0363	-0.000295187	2.52427	584.452
244.5000	28.2845	-9.87356E-005	2.59339	596.375
244.0000	25.8464	-0.000272027	2.66467	608.909
243.5000	24.8837	-0.000539927	2.73473	621.468
243.0000	25.3055	-0.000804552	2.80691	634.677
242.5000	24.8764	-0.000707982	2.88823	649.864
242.0000	22.6273	-0.000870741	2.96006	663.551
241.5000	24.029	-0.000869074	3.04101	679.283
241.0000	22.57	-0.000837794	3.11554	694.065
240.5000	21.8289	-0.000909474	3.19803	710.862
240.0000	19.769	-0.000693864	3.27321	726.498
239.5000	19.1872	-0.000718081	3.35919	744.794
239.0000	13.6534	-0.000673797	3.4329	760.804
238.5000	11.7068	-0.000602652	3.50887	777.686
238.0000	12.1334	-0.000416342	3.58558	795.218
237.5000	8.78928	-0.000242263	3.652	810.798
237.0000	8.63525	-0.000217758	3.71825	826.71
236.5000	7.1146	-0.000353111	3.78059	842.057
236.0000	5.09259	-0.000381966	3.83556	855.912
235.5000	4.21732	-0.000323205	3.89336	870.949
235.0000	1.11854	-0.000184185	3.9293	880.561
234.5000	0.417052	-6.91589E-005	3.96443	890.161
234.0000	-1.45265	-0.000528997	3.99827	899.635
233.5000	-0.730844	-0.000446117	4.03178	909.274
233.0000	-2.14956	-0.000566623	4.06208	918.346
232.5000	-4.01719	-0.000256035	4.08598	925.941
232.0000	-6.70535	-9.84909E-005	4.10808	933.524
231.5000	-7.38994	-0.000269899	4.1217	938.746
231.0000	-9.70412	-8.82971E-005	4.13289	943.643
230.5000	-7.08624	-0.000315865	4.13973	947.594
230.0000	-4.07878	-0.00034857	4.1427	950.603
229.5000	-5.94063	-0.000283167	4.14307	953.103
229.0000	-5.02337	-0.000249926	4.14063	954.971
228.5000	-8.68112	-0.000510748	4.13667	956.447
228.0000	-8.21354	-0.000405769	4.13133	957.489
227.5000	-8.03465	-0.000313339	4.12407	958.32
227.0000	-5.23764	-0.000538629	4.11576	958.926
226.5000	-2.55811	-0.00019272	4.1062	959.368
226.0000	-1.50276	-0.000385884	4.09673	959.645
225.5000	3.54027	5.19044E-005	4.08625	959.874
225.0000	0.614939	4.29033E-005	4.07507	960.083
224.5000	2.65668	9.05059E-005	4.06323	960.202
224.0000	6.18608	5.1984E-005	4.05133	960.292
223.5000	4.35691	0.000243347	4.03969	960.377
223.0000	2.40446	0.00025188	4.02813	960.441
222.5000	1.59533	0.000214193	4.01376	960.507
222.0000	-0.741993	0.000500229	4.00059	960.582
221.5000	0.191565	0.00050381	3.98671	960.657
221.0000	0.305869	0.000631471	3.97498	960.761
220.5000	2.45948	0.00084432	3.96281	960.781
220.0000	0.0688739	0.000689409	3.94982	960.777

##### Extended Information
[Comments]
Sample name	JS187+JS190_5E-5_H2O_90-10_100EQDT+72H
Comment
User
Division
Company	Labo systeme complexes hors equilibre

[Detailed Information]
Creation date	1/26/2024 11:04 AM

Data array type	Linear data array * 4
Horizontal axis	Wavelength [nm]
Vertical axis(1)	CD [mdeg]
Vertical axis(2)	LD [dOD]
Vertical axis(3)	Abs
Vertical axis(4)	HT [V]
Start	700 nm
End	220 nm
Data interval	0.5 nm
Data points	961     

[Measurement Information]
Instrument name	CD Jasco
Model name	J-1500
Serial No.	A005261638

Detector	PM-539
Detector S/N	A0052PM539
  Lock-in amp.	X mode
  HT volt	Auto

Detector	EXPML-535
Detector S/N	A0001
  Lock-in amp.	X mode
  HT volt	Auto

Measurement date	1/26/2024 11:04 AM

Overload detect	1
Photometric mode	CD, LD, Abs, HT
Measure range	700 - 220 nm
Data pitch	0.5 nm
CD scale	200 mdeg/1.0 dOD
FL scale	200 mdeg/1.0 dOD
D.I.T.	1 sec
Bandwidth	1.00 nm
Start mode	Immediately
Scanning speed	500 nm/min
Baseline correction	Baseline
Shutter control	Auto


