TITLE	JS187+JS190_5E-5_H2O_56-44_100EQDT+72H
DATA TYPE	
ORIGIN	JASCO
OWNER	
DATE	24/01/26
TIME	09:46:22
SPECTROMETER/DATA SYSTEM	
LOCALE	1033
RESOLUTION	
DELTAX	-0.5
XUNITS	NANOMETERS
YUNITS	CD [mdeg]
Y2UNITS	LD [dOD]
Y3UNITS	ABSORBANCE
Y4UNITS	HT [V]
FIRSTX	  700.0000
LASTX	  220.0000
NPOINTS	     961
FIRSTY	     1.77042
MAXY	    16.00079
MINY	   -15.40155
XYDATA
700.0000	1.77042	-0.000618217	-0.00539634	303.83
699.5000	1.54143	-0.000627939	-0.00595188	303.572
699.0000	1.58906	-0.000636396	-0.00681999	303.239
698.5000	1.72724	-0.000615502	-0.00712181	302.876
698.0000	1.71004	-0.000614699	-0.00775174	302.482
697.5000	1.47558	-0.000596995	-0.00874516	302.079
697.0000	1.36434	-0.000564224	-0.0100779	301.626
696.5000	1.47798	-0.000565501	-0.0106702	301.16
696.0000	1.31979	-0.000550728	-0.0105243	300.647
695.5000	1.30527	-0.000555032	-0.0104703	300.127
695.0000	1.02044	-0.000568738	-0.0101956	299.629
694.5000	0.61874	-0.00057821	-0.0101169	299.134
694.0000	0.842866	-0.000575126	-0.00882543	298.676
693.5000	0.846046	-0.000567254	-0.00749279	298.227
693.0000	0.733411	-0.000572674	-0.00535	297.853
692.5000	0.58556	-0.000569864	-0.00338514	297.486
692.0000	0.577359	-0.000547646	-0.00124628	297.175
691.5000	0.609568	-0.000564142	0.00111995	296.895
691.0000	0.655311	-0.000569048	0.00352291	296.638
690.5000	0.621418	-0.000557045	0.00515094	296.412
690.0000	0.820373	-0.000558079	0.00646113	296.205
689.5000	0.78788	-0.00056322	0.00767544	296.011
689.0000	0.659485	-0.000573113	0.00948764	295.857
688.5000	0.618313	-0.000578146	0.0109853	295.753
688.0000	0.643816	-0.000570738	0.0131507	295.739
687.5000	0.53809	-0.000565149	0.0159922	295.836
687.0000	0.617231	-0.000543741	0.0186987	295.999
686.5000	0.568675	-0.000545282	0.0210786	296.221
686.0000	0.425264	-0.00054859	0.0219987	296.438
685.5000	0.505332	-0.00054538	0.0223119	296.702
685.0000	0.341998	-0.000572	0.0221928	296.96
684.5000	0.153703	-0.000577601	0.021555	297.213
684.0000	0.300544	-0.000585629	0.0203382	297.449
683.5000	0.258961	-0.000592161	0.0195996	297.692
683.0000	0.292807	-0.000569236	0.0187012	297.933
682.5000	0.181431	-0.000573504	0.0182941	298.175
682.0000	0.309075	-0.000572027	0.0176979	298.437
681.5000	0.254488	-0.000596249	0.0177974	298.718
681.0000	0.28609	-0.000582693	0.0180537	299.025
680.5000	0.340257	-0.000589122	0.018264	299.305
680.0000	0.219187	-0.000606349	0.0173833	299.551
679.5000	0.178279	-0.00060265	0.0158917	299.732
679.0000	0.171115	-0.000591656	0.0132236	299.849
678.5000	0.24219	-0.000598338	0.0114754	299.917
678.0000	0.363107	-0.000586375	0.00970132	299.944
677.5000	0.468893	-0.000589613	0.00857046	299.94
677.0000	0.408279	-0.000583138	0.00802939	299.92
676.5000	0.514729	-0.000571671	0.00818946	299.896
676.0000	0.422264	-0.000568513	0.00850012	299.882
675.5000	0.475295	-0.000568337	0.00875135	299.863
675.0000	0.474591	-0.000593494	0.00911583	299.84
674.5000	0.570454	-0.000581179	0.00990016	299.826
674.0000	0.537146	-0.000561294	0.0108271	299.828
673.5000	0.625712	-0.000553642	0.0118749	299.841
673.0000	0.489729	-0.000546825	0.0119119	299.854
672.5000	0.476907	-0.000548831	0.0120136	299.883
672.0000	0.596087	-0.000524642	0.0124096	299.917
671.5000	0.591536	-0.000529813	0.0132896	299.953
671.0000	0.432993	-0.00053514	0.0141717	299.993
670.5000	0.433751	-0.000537438	0.0152877	300.038
670.0000	0.372112	-0.000525125	0.0161952	300.085
669.5000	0.51595	-0.000526991	0.0166729	300.146
669.0000	0.610249	-0.000520071	0.0172798	300.217
668.5000	0.701036	-0.000521135	0.017891	300.292
668.0000	0.756187	-0.000533877	0.0181827	300.369
667.5000	0.741727	-0.000520836	0.0184085	300.456
667.0000	0.483023	-0.000506886	0.0184321	300.552
666.5000	0.482596	-0.000509564	0.0184203	300.643
666.0000	0.542281	-0.000509854	0.0178862	300.76
665.5000	0.618083	-0.000514285	0.0175623	300.858
665.0000	0.770943	-0.000514451	0.01816	300.967
664.5000	1.15068	-0.000504375	0.018986	301.068
664.0000	1.02811	-0.000508601	0.0190384	301.161
663.5000	1.02597	-0.000501511	0.0181176	301.255
663.0000	1.22662	-0.000512928	0.0180592	301.35
662.5000	1.21159	-0.000482875	0.0177805	301.429
662.0000	1.20375	-0.000507296	0.0175091	301.505
661.5000	1.11756	-0.000501596	0.0175912	301.551
661.0000	0.83784	-0.000496592	0.0172296	301.581
660.5000	0.781808	-0.000493135	0.0167631	301.61
660.0000	1.10589	-0.000486269	0.0165326	301.626
659.5000	1.26908	-0.00047639	0.0157494	301.622
659.0000	1.27837	-0.000494451	0.0152696	301.611
658.5000	1.06208	-0.000487215	0.0149812	301.583
658.0000	0.869989	-0.000496869	0.0148878	301.524
657.5000	0.989833	-0.000510041	0.0142909	301.45
657.0000	0.744608	-0.00050221	0.0145672	301.356
656.5000	0.600571	-0.000517213	0.0138272	301.25
656.0000	0.680729	-0.000509816	0.0130353	301.115
655.5000	0.988353	-0.000516916	0.0136048	300.957
655.0000	0.698756	-0.000518698	0.0132732	300.767
654.5000	0.739025	-0.000513879	0.012486	300.581
654.0000	0.649499	-0.000507874	0.0122366	300.37
653.5000	0.581605	-0.000499596	0.0126711	300.165
653.0000	0.928555	-0.000497735	0.0135408	299.981
652.5000	0.830055	-0.000483557	0.0144359	299.827
652.0000	1.13092	-0.00047699	0.0155719	299.704
651.5000	0.744553	-0.000488131	0.0171762	299.608
651.0000	0.613432	-0.000506113	0.0192339	299.539
650.5000	0.764462	-0.00049196	0.020634	299.504
650.0000	1.05159	-0.000494453	0.0224977	299.498
649.5000	0.990591	-0.000479245	0.0237871	299.512
649.0000	0.921368	-0.000485501	0.025362	299.553
648.5000	1.17133	-0.00050405	0.0260557	299.62
648.0000	1.28282	-0.000495223	0.0270815	299.71
647.5000	1.06697	-0.000491378	0.0280802	299.822
647.0000	0.910131	-0.00048563	0.0287138	299.973
646.5000	0.924687	-0.000492616	0.0292097	300.131
646.0000	1.05039	-0.000501334	0.0307163	300.303
645.5000	1.19117	-0.000510834	0.0314008	300.47
645.0000	1.13881	-0.000527728	0.0310098	300.63
644.5000	1.0574	-0.000515597	0.0309387	300.774
644.0000	0.847439	-0.000512534	0.0308205	300.876
643.5000	0.778703	-0.000527353	0.0303466	300.956
643.0000	1.09602	-0.000515626	0.0298283	301.003
642.5000	1.21187	-0.000503091	0.0293684	301.028
642.0000	1.37652	-0.000491524	0.0290931	301.033
641.5000	1.35925	-0.000500881	0.0286826	301.017
641.0000	1.4091	-0.000509501	0.0286092	300.987
640.5000	1.17294	-0.000527403	0.0288833	300.939
640.0000	1.12555	-0.000520106	0.0294063	300.881
639.5000	1.1479	-0.000541177	0.0302897	300.815
639.0000	1.06043	-0.00052869	0.0309829	300.747
638.5000	1.13174	-0.000562764	0.0321504	300.67
638.0000	1.16699	-0.000536198	0.0326872	300.588
637.5000	1.10916	-0.000527823	0.0329764	300.499
637.0000	1.04695	-0.000520233	0.0341991	300.415
636.5000	1.25721	-0.000544033	0.0350716	300.326
636.0000	1.25682	-0.000575908	0.0355432	300.266
635.5000	1.44135	-0.000569127	0.0359776	300.195
635.0000	1.2512	-0.000568799	0.0368529	300.128
634.5000	1.07234	-0.00058538	0.03778	300.081
634.0000	0.806455	-0.000586237	0.0385188	300.028
633.5000	0.797634	-0.000585156	0.0389872	299.987
633.0000	0.689133	-0.000582885	0.0399453	299.947
632.5000	0.916483	-0.000576417	0.040362	299.916
632.0000	1.13648	-0.000573784	0.0407707	299.884
631.5000	1.22409	-0.000558851	0.0414585	299.852
631.0000	1.50471	-0.000539311	0.042088	299.819
630.5000	1.46434	-0.000545639	0.0426916	299.785
630.0000	1.66492	-0.000549824	0.0433	299.743
629.5000	1.81756	-0.000552347	0.0441175	299.708
629.0000	1.72062	-0.000541009	0.0446492	299.669
628.5000	1.83759	-0.000541787	0.0450658	299.638
628.0000	1.71852	-0.000531346	0.0456717	299.599
627.5000	1.59955	-0.000514708	0.0465194	299.55
627.0000	1.29128	-0.000527499	0.0470053	299.516
626.5000	1.40872	-0.000535599	0.0470149	299.466
626.0000	1.4087	-0.000539957	0.0471067	299.415
625.5000	1.36541	-0.000551579	0.0479329	299.375
625.0000	1.40844	-0.000570016	0.0488862	299.341
624.5000	1.46635	-0.000576636	0.0499856	299.323
624.0000	1.40001	-0.000563162	0.0508864	299.307
623.5000	1.20198	-0.00055374	0.0519224	299.309
623.0000	0.873264	-0.000566066	0.0527769	299.308
622.5000	1.0142	-0.000556352	0.0539087	299.332
622.0000	0.869475	-0.000551959	0.0546837	299.358
621.5000	0.668266	-0.000549993	0.0557184	299.415
621.0000	0.593989	-0.000559548	0.056792	299.48
620.5000	0.631182	-0.000565599	0.0575327	299.55
620.0000	0.758292	-0.000563694	0.0581269	299.629
619.5000	0.834909	-0.000578083	0.0591046	299.735
619.0000	0.838274	-0.000609074	0.0605959	299.863
618.5000	0.845662	-0.000608556	0.0624843	300.004
618.0000	0.794402	-0.00060955	0.0645058	300.16
617.5000	0.936637	-0.000614976	0.0653559	300.307
617.0000	0.886636	-0.000590817	0.066115	300.478
616.5000	0.891804	-0.000589038	0.0667231	300.63
616.0000	1.02893	-0.000596985	0.0677413	300.777
615.5000	0.990215	-0.00062086	0.0683871	300.928
615.0000	1.36208	-0.000607781	0.0690198	301.085
614.5000	1.31637	-0.000612279	0.069422	301.238
614.0000	1.38223	-0.000639886	0.0699114	301.396
613.5000	1.59066	-0.000645606	0.0705625	301.547
613.0000	1.64512	-0.000637336	0.071098	301.703
612.5000	1.65989	-0.000629172	0.071789	301.864
612.0000	1.78678	-0.000623144	0.0726275	302.028
611.5000	1.74128	-0.000623111	0.0736532	302.18
611.0000	1.79468	-0.000608023	0.0740948	302.326
610.5000	2.04537	-0.000611964	0.0744669	302.472
610.0000	2.00886	-0.000615971	0.0745981	302.602
609.5000	2.17052	-0.00061435	0.075456	302.741
609.0000	2.1542	-0.00061226	0.0760939	302.855
608.5000	2.1699	-0.000639198	0.0771979	302.978
608.0000	2.06875	-0.000629948	0.0780776	303.11
607.5000	2.01005	-0.000630296	0.0783873	303.227
607.0000	2.24664	-0.000639477	0.0791664	303.353
606.5000	2.25236	-0.000657282	0.0799452	303.467
606.0000	2.25408	-0.000666644	0.0813995	303.578
605.5000	2.09409	-0.000654542	0.0825101	303.686
605.0000	1.77705	-0.000670546	0.0839016	303.787
604.5000	1.95223	-0.000657922	0.0850069	303.882
604.0000	1.95067	-0.000671403	0.0864469	303.982
603.5000	1.82869	-0.000681889	0.0879284	304.069
603.0000	1.92432	-0.000694063	0.0889099	304.147
602.5000	1.83463	-0.000706074	0.0904883	304.237
602.0000	2.05357	-0.00070122	0.0921793	304.321
601.5000	1.99137	-0.000693245	0.0938176	304.412
601.0000	1.93095	-0.000698197	0.0953495	304.493
600.5000	2.14044	-0.000688229	0.0974842	304.578
600.0000	2.09068	-0.000688758	0.0990839	304.636
599.5000	1.98815	-0.000685984	0.101531	304.69
599.0000	1.79326	-0.000678906	0.103576	304.74
598.5000	1.64455	-0.000676618	0.106139	304.781
598.0000	1.81177	-0.000655256	0.108271	304.821
597.5000	1.78802	-0.000658311	0.110227	304.862
597.0000	1.89451	-0.000655915	0.112564	304.91
596.5000	2.00583	-0.000652528	0.114978	304.941
596.0000	2.04096	-0.00062891	0.117518	304.979
595.5000	1.98278	-0.000631413	0.119882	305.015
595.0000	1.93986	-0.000634228	0.122516	305.038
594.5000	1.95862	-0.000623639	0.125282	305.075
594.0000	1.9935	-0.000617464	0.127516	305.112
593.5000	2.05501	-0.000612205	0.130217	305.139
593.0000	2.0287	-0.000608056	0.133385	305.179
592.5000	2.28712	-0.000596454	0.136143	305.246
592.0000	2.4631	-0.000598162	0.13883	305.328
591.5000	2.66799	-0.000598459	0.141168	305.406
591.0000	2.8588	-0.000578873	0.144115	305.497
590.5000	2.948	-0.000575789	0.146981	305.621
590.0000	3.01765	-0.000570528	0.150167	305.767
589.5000	3.29213	-0.000574436	0.153499	305.913
589.0000	3.24166	-0.000569443	0.156857	306.065
588.5000	3.30879	-0.000576466	0.160134	306.235
588.0000	3.47527	-0.000589503	0.1639	306.437
587.5000	3.57842	-0.000581173	0.167652	306.653
587.0000	3.83577	-0.000553673	0.171544	306.92
586.5000	4.015	-0.000549595	0.175324	307.184
586.0000	3.93173	-0.000528632	0.179744	307.461
585.5000	4.053	-0.000520447	0.183867	307.761
585.0000	4.19659	-0.000512555	0.188009	308.079
584.5000	4.09886	-0.000503032	0.19217	308.4
584.0000	3.94074	-0.000486617	0.196891	308.751
583.5000	4.04773	-0.000474966	0.201891	309.127
583.0000	3.89587	-0.000457004	0.20756	309.546
582.5000	4.06196	-0.000431183	0.213011	309.984
582.0000	3.90333	-0.000414984	0.218475	310.421
581.5000	3.87472	-0.000366736	0.224305	310.898
581.0000	3.87686	-0.000327112	0.230681	311.403
580.5000	3.93256	-0.000288135	0.237088	311.918
580.0000	4.21738	-0.000264456	0.243305	312.434
579.5000	4.55326	-0.000211553	0.249676	312.98
579.0000	4.70837	-0.000172081	0.256282	313.539
578.5000	4.74303	-0.000142556	0.263397	314.107
578.0000	4.925	-0.000108857	0.270621	314.717
577.5000	4.99617	-6.86117E-005	0.277945	315.395
577.0000	5.09049	-2.20423E-005	0.28605	316.064
576.5000	5.36147	4.0138E-005	0.294871	316.798
576.0000	5.78775	8.0937E-005	0.303582	317.53
575.5000	5.95025	0.000108382	0.312818	318.3
575.0000	6.45578	0.000167542	0.320966	319.02
574.5000	6.62143	0.000212936	0.330143	319.812
574.0000	7.1555	0.000242422	0.339583	320.602
573.5000	7.62225	0.000291921	0.349099	321.414
573.0000	8.12661	0.000336997	0.358747	322.287
572.5000	8.37941	0.000361402	0.368001	323.131
572.0000	8.71586	0.000391576	0.378419	324.099
571.5000	8.97425	0.000427911	0.38898	325.061
571.0000	9.54209	0.000466991	0.400655	326.077
570.5000	9.88638	0.000511098	0.412176	327.135
570.0000	10.2955	0.000553918	0.423258	328.164
569.5000	10.6361	0.000602691	0.43538	329.236
569.0000	10.9969	0.000659943	0.447498	330.306
568.5000	11.3901	0.000681163	0.458517	331.334
568.0000	11.8183	0.000725577	0.469595	332.398
567.5000	11.8716	0.000782076	0.480814	333.471
567.0000	11.9761	0.000814764	0.492169	334.522
566.5000	12.5266	0.000800579	0.503421	335.548
566.0000	12.5846	0.000849771	0.514556	336.563
565.5000	12.6627	0.000866002	0.525136	337.558
565.0000	12.9461	0.00087558	0.535599	338.51
564.5000	13.1857	0.000895396	0.546186	339.468
564.0000	13.4023	0.000891214	0.556021	340.323
563.5000	13.4406	0.0009033	0.56517	341.143
563.0000	13.5246	0.000902105	0.574213	341.982
562.5000	13.3797	0.000898019	0.582559	342.729
562.0000	13.6702	0.000895389	0.59054	343.434
561.5000	13.499	0.000848915	0.599248	344.165
561.0000	13.5667	0.000812235	0.60707	344.847
560.5000	13.8039	0.000782814	0.614375	345.487
560.0000	13.6516	0.000747147	0.621491	346.079
559.5000	13.6377	0.000676616	0.62821	346.585
559.0000	13.6524	0.000622428	0.633872	347.006
558.5000	13.2794	0.000573271	0.638557	347.362
558.0000	13.3171	0.000527604	0.64239	347.639
557.5000	13.5858	0.000448661	0.646265	347.887
557.0000	13.1316	0.000366676	0.649745	348.079
556.5000	12.7176	0.000303653	0.652298	348.223
556.0000	12.5293	0.000239948	0.653794	348.31
555.5000	12.2446	0.000190698	0.655279	348.36
555.0000	12.1433	9.77195E-005	0.656323	348.343
554.5000	11.8457	3.64288E-005	0.657206	348.267
554.0000	11.8591	-2.76713E-005	0.65712	348.149
553.5000	11.9307	-4.90827E-005	0.656566	347.981
553.0000	11.9136	-7.37002E-005	0.655675	347.786
552.5000	11.3295	-0.000132777	0.654915	347.553
552.0000	11.2023	-0.000183655	0.653805	347.277
551.5000	10.8545	-0.000223483	0.652419	346.986
551.0000	10.4617	-0.000267427	0.650556	346.688
550.5000	10.3322	-0.000288373	0.648415	346.343
550.0000	10.0207	-0.000303064	0.646368	345.98
549.5000	9.9129	-0.000321125	0.644384	345.605
549.0000	9.98644	-0.000318255	0.641812	345.23
548.5000	10.1897	-0.000350811	0.639262	344.87
548.0000	10.2035	-0.000370644	0.637537	344.472
547.5000	10.2042	-0.000353871	0.635856	344.103
547.0000	10.1495	-0.00036893	0.634193	343.715
546.5000	10.3797	-0.000341357	0.632252	343.364
546.0000	10.3738	-0.000334055	0.629786	343.031
545.5000	10.4054	-0.000315694	0.628349	342.693
545.0000	10.0568	-0.000350391	0.627118	342.425
544.5000	10.6081	-0.000346835	0.625981	342.156
544.0000	10.7684	-0.000326476	0.624737	341.922
543.5000	10.796	-0.000313636	0.623797	341.707
543.0000	10.9703	-0.000274083	0.623146	341.507
542.5000	11.2515	-0.000273175	0.623183	341.348
542.0000	11.204	-0.000255758	0.623115	341.213
541.5000	11.5695	-0.000243806	0.62329	341.124
541.0000	11.6325	-0.000229317	0.623302	341.04
540.5000	11.5549	-0.000208025	0.624199	340.975
540.0000	11.8477	-0.000174764	0.625473	340.933
539.5000	11.8326	-0.000147586	0.626885	340.958
539.0000	11.9199	-0.000153273	0.628174	341.007
538.5000	11.9797	-0.00014653	0.629917	341.083
538.0000	12.1034	-0.000130878	0.632283	341.181
537.5000	12.3403	-0.000123175	0.634908	341.316
537.0000	12.4223	-0.000108902	0.637612	341.483
536.5000	12.005	-8.45849E-005	0.640613	341.665
536.0000	12.2529	-8.24755E-005	0.644135	341.884
535.5000	12.6176	-7.11285E-005	0.647751	342.122
535.0000	12.8704	-4.52464E-005	0.651864	342.393
534.5000	13.1883	-4.6332E-005	0.655779	342.656
534.0000	13.4375	-5.15878E-005	0.660029	342.958
533.5000	13.4923	-3.17499E-005	0.664331	343.288
533.0000	13.4944	-4.71452E-005	0.668493	343.615
532.5000	13.7623	-4.66816E-005	0.673032	343.989
532.0000	13.6766	-5.86226E-005	0.677934	344.386
531.5000	13.6728	-5.34301E-005	0.683054	344.793
531.0000	13.7279	-4.72897E-005	0.688972	345.219
530.5000	13.9771	-6.1968E-005	0.694503	345.648
530.0000	13.8018	-8.97129E-005	0.70015	346.106
529.5000	13.8774	-9.30886E-005	0.705627	346.547
529.0000	13.7793	-8.12109E-005	0.711102	346.96
528.5000	13.6058	-9.12011E-005	0.716423	347.379
528.0000	13.7255	-0.000124735	0.721533	347.78
527.5000	13.753	-0.000136401	0.726911	348.182
527.0000	13.4455	-0.000206839	0.732749	348.619
526.5000	13.3326	-0.000255542	0.737975	349.029
526.0000	13.1251	-0.000275297	0.743653	349.454
525.5000	13.0395	-0.000316523	0.749235	349.867
525.0000	13.1223	-0.000338626	0.754717	350.275
524.5000	13.2155	-0.000364636	0.759775	350.626
524.0000	13.1286	-0.000424448	0.764531	350.952
523.5000	12.9943	-0.000450604	0.769051	351.286
523.0000	12.7736	-0.000501684	0.773449	351.608
522.5000	12.5209	-0.000555554	0.777319	351.903
522.0000	12.394	-0.000597215	0.781413	352.192
521.5000	12.1858	-0.000630243	0.785599	352.467
521.0000	11.7785	-0.000680468	0.789445	352.726
520.5000	11.8337	-0.000787106	0.793266	352.984
520.0000	11.6782	-0.000862234	0.796667	353.21
519.5000	11.1006	-0.00093071	0.800289	353.429
519.0000	10.7469	-0.000981076	0.803401	353.622
518.5000	10.5825	-0.00101312	0.806141	353.81
518.0000	10.3599	-0.00108033	0.809289	354.006
517.5000	9.83636	-0.0011671	0.812604	354.21
517.0000	9.67217	-0.00122347	0.815993	354.398
516.5000	9.5384	-0.00130462	0.819251	354.567
516.0000	8.90371	-0.00133005	0.822392	354.748
515.5000	8.49155	-0.00137899	0.824898	354.91
515.0000	8.19099	-0.00141931	0.827283	355.048
514.5000	8.09946	-0.00146202	0.829628	355.196
514.0000	8.10521	-0.00149186	0.832049	355.343
513.5000	7.5841	-0.00155376	0.834617	355.496
513.0000	7.26347	-0.00160447	0.836849	355.653
512.5000	7.28409	-0.0016492	0.839499	355.826
512.0000	6.99639	-0.00166269	0.842071	355.986
511.5000	7.06539	-0.00169648	0.844199	356.137
511.0000	6.74191	-0.00172309	0.846588	356.299
510.5000	6.2808	-0.00175281	0.849048	356.441
510.0000	6.16072	-0.0017647	0.851467	356.582
509.5000	5.94583	-0.00181513	0.853567	356.705
509.0000	6.22058	-0.00185411	0.85546	356.819
508.5000	5.86298	-0.00187369	0.857288	356.915
508.0000	5.58451	-0.00192043	0.859193	356.985
507.5000	5.51926	-0.00197236	0.861037	357.04
507.0000	5.54707	-0.00202319	0.86317	357.119
506.5000	5.10769	-0.0020949	0.865152	357.187
506.0000	4.73343	-0.00213601	0.866639	357.246
505.5000	4.98829	-0.00216601	0.867954	357.284
505.0000	4.77794	-0.00219411	0.869321	357.319
504.5000	4.55154	-0.00223322	0.870565	357.327
504.0000	4.63113	-0.00226627	0.87158	357.316
503.5000	4.62375	-0.00228376	0.872168	357.265
503.0000	4.54581	-0.00229681	0.872467	357.164
502.5000	4.35418	-0.00234161	0.872525	357.058
502.0000	4.21852	-0.00234736	0.872387	356.938
501.5000	3.89166	-0.00240614	0.872183	356.791
501.0000	3.33777	-0.00244941	0.871778	356.61
500.5000	3.06467	-0.00248314	0.871338	356.398
500.0000	2.89302	-0.00254363	0.870631	356.14
499.5000	2.73653	-0.00256849	0.869141	355.823
499.0000	2.58814	-0.00260105	0.867374	355.404
498.5000	2.1425	-0.00262992	0.865115	354.849
498.0000	2.02619	-0.00265072	0.862582	354.174
497.5000	1.75158	-0.00270664	0.860017	353.329
497.0000	1.27382	-0.00276086	0.857895	352.436
496.5000	0.907327	-0.00279549	0.855985	351.494
496.0000	0.639571	-0.00283571	0.855034	350.711
495.5000	0.186603	-0.0028712	0.854284	350.085
495.0000	0.105357	-0.00292832	0.852955	349.618
494.5000	-0.157407	-0.00297534	0.851025	349.196
494.0000	-0.149274	-0.00302102	0.848857	348.794
493.5000	-0.254555	-0.00305993	0.84628	348.349
493.0000	-0.287274	-0.00307371	0.843996	347.948
492.5000	-0.365585	-0.00308728	0.841666	347.544
492.0000	-0.592446	-0.00312704	0.839004	347.121
491.5000	-1.02326	-0.00316533	0.83626	346.735
491.0000	-0.966385	-0.0032057	0.833717	346.37
490.5000	-1.12951	-0.00326994	0.831185	346.044
490.0000	-1.41248	-0.00332755	0.828668	345.773
489.5000	-1.26327	-0.00337603	0.826172	345.566
489.0000	-1.52583	-0.00340481	0.82346	345.366
488.5000	-1.67659	-0.0034369	0.820207	345.124
488.0000	-1.65951	-0.00349706	0.815865	344.695
487.5000	-1.84732	-0.00353673	0.811048	344.054
487.0000	-1.97655	-0.00356631	0.807109	343.309
486.5000	-2.20984	-0.00360073	0.802988	342.423
486.0000	-2.38176	-0.00363307	0.799057	341.509
485.5000	-2.84844	-0.00368068	0.796277	340.601
485.0000	-2.94978	-0.00369985	0.794165	339.765
484.5000	-2.87358	-0.00375503	0.791746	339.08
484.0000	-3.21563	-0.00378903	0.788684	338.463
483.5000	-3.43432	-0.003821	0.785728	337.944
483.0000	-3.46295	-0.0038421	0.782069	337.435
482.5000	-3.30223	-0.0038792	0.77835	337.008
482.0000	-3.23338	-0.00387865	0.774404	336.616
481.5000	-3.40554	-0.00390858	0.770596	336.235
481.0000	-3.43616	-0.00389744	0.766864	335.87
480.5000	-3.50298	-0.00393014	0.762955	335.533
480.0000	-3.68594	-0.00392955	0.758897	335.222
479.5000	-3.67838	-0.00393243	0.754782	334.915
479.0000	-3.85658	-0.00396438	0.749139	334.481
478.5000	-3.85918	-0.00397019	0.743066	333.824
478.0000	-3.93891	-0.00399446	0.737825	332.904
477.5000	-3.88947	-0.00397591	0.735145	332.083
477.0000	-3.79507	-0.00397717	0.732808	331.478
476.5000	-3.75821	-0.0039868	0.727746	330.862
476.0000	-3.64268	-0.00396355	0.72137	330.054
475.5000	-3.42478	-0.00396236	0.714722	329.02
475.0000	-3.31504	-0.00395869	0.708091	327.782
474.5000	-3.3097	-0.00393835	0.702279	326.451
474.0000	-3.38655	-0.00391379	0.696912	324.994
473.5000	-3.52398	-0.00390587	0.691056	323.319
473.0000	-3.58437	-0.00388362	0.685078	321.48
472.5000	-3.56973	-0.00388282	0.680138	319.529
472.0000	-3.50292	-0.00387316	0.677248	317.861
471.5000	-3.48104	-0.00385743	0.674866	316.507
471.0000	-3.46786	-0.00383945	0.672905	315.699
470.5000	-3.40798	-0.00382465	0.670576	315.147
470.0000	-3.54955	-0.00381743	0.667802	314.921
469.5000	-3.70796	-0.003808	0.663099	314.798
469.0000	-3.97208	-0.00379312	0.654675	314.349
468.5000	-3.772	-0.00377858	0.645839	313.468
468.0000	-3.98727	-0.00377689	0.639136	312.473
467.5000	-4.17948	-0.00375076	0.634204	311.621
467.0000	-4.17236	-0.00374033	0.630455	310.979
466.5000	-4.13031	-0.0037071	0.627317	310.559
466.0000	-4.27123	-0.00370375	0.623317	310.314
465.5000	-4.23476	-0.00370394	0.618921	310.276
465.0000	-4.04035	-0.00368096	0.614035	310.491
464.5000	-3.90671	-0.00365518	0.607873	310.877
464.0000	-4.13094	-0.00363824	0.599749	311.148
463.5000	-4.02414	-0.00359929	0.590338	311.095
463.0000	-3.95876	-0.00357365	0.581302	310.721
462.5000	-3.82509	-0.00354031	0.573693	310.171
462.0000	-3.89175	-0.00349859	0.567335	309.579
461.5000	-3.4916	-0.00347652	0.561605	309.071
461.0000	-3.17619	-0.00343593	0.555918	308.676
460.5000	-3.13104	-0.00341039	0.549932	308.403
460.0000	-3.06012	-0.00336392	0.54412	308.231
459.5000	-2.99955	-0.00334284	0.537921	308.111
459.0000	-2.81204	-0.00328218	0.530709	307.941
458.5000	-2.7548	-0.00326248	0.523014	307.682
458.0000	-2.48164	-0.00321025	0.514972	307.285
457.5000	-2.57558	-0.00317013	0.506817	306.675
457.0000	-2.45579	-0.00310456	0.499009	305.872
456.5000	-2.47645	-0.00304421	0.49268	305.088
456.0000	-2.31668	-0.00299228	0.486087	304.392
455.5000	-2.1273	-0.00293652	0.477807	303.561
455.0000	-2.13592	-0.00289966	0.469828	302.58
454.5000	-2.11047	-0.00284892	0.463654	301.638
454.0000	-1.83847	-0.00279456	0.458248	300.94
453.5000	-1.73629	-0.00272441	0.451893	300.451
453.0000	-1.73303	-0.00265811	0.444881	299.97
452.5000	-1.76041	-0.00261374	0.438132	299.47
452.0000	-1.69992	-0.00253939	0.431496	298.92
451.5000	-1.56099	-0.00249543	0.42476	298.366
451.0000	-1.491	-0.00243828	0.418212	297.82
450.5000	-1.41909	-0.00238563	0.411422	297.236
450.0000	-1.42107	-0.0023316	0.40539	296.675
449.5000	-1.30094	-0.00227914	0.399904	296.199
449.0000	-1.07916	-0.00223161	0.394962	295.895
448.5000	-1.08795	-0.00218976	0.38889	295.632
448.0000	-0.97953	-0.00214507	0.382213	295.252
447.5000	-0.926485	-0.0020957	0.376701	294.852
447.0000	-0.729058	-0.00205372	0.372841	294.668
446.5000	-0.844689	-0.00200999	0.368656	294.672
446.0000	-0.677461	-0.00198733	0.36198	294.573
445.5000	-0.736436	-0.00193371	0.354858	294.166
445.0000	-0.69646	-0.00189673	0.348711	293.58
444.5000	-0.781726	-0.00184718	0.342843	292.944
444.0000	-0.529352	-0.00181063	0.337123	292.295
443.5000	-0.490699	-0.00177387	0.331428	291.582
443.0000	-0.521428	-0.00172154	0.326666	290.943
442.5000	-0.570064	-0.0016763	0.322119	290.332
442.0000	-0.526791	-0.00164331	0.317979	289.83
441.5000	-0.410832	-0.00161154	0.313294	289.31
441.0000	-0.534447	-0.00157598	0.30888	288.833
440.5000	-0.706225	-0.00153044	0.304631	288.373
440.0000	-0.672007	-0.00149995	0.300126	287.895
439.5000	-0.501222	-0.00145212	0.295514	287.414
439.0000	-0.522852	-0.00140846	0.29041	286.894
438.5000	-0.498221	-0.0013541	0.285012	286.37
438.0000	-0.511792	-0.00129217	0.279499	285.854
437.5000	-0.524491	-0.0012534	0.274353	285.363
437.0000	-0.480271	-0.00121902	0.269103	284.881
436.5000	-0.421872	-0.00117547	0.265128	284.482
436.0000	-0.419085	-0.00112952	0.261404	284.123
435.5000	-0.576839	-0.00108827	0.257148	283.78
435.0000	-0.642557	-0.00104696	0.252651	283.452
434.5000	-0.679992	-0.00100813	0.24808	283.119
434.0000	-0.623068	-0.000970015	0.243606	282.763
433.5000	-0.768392	-0.000925808	0.239492	282.41
433.0000	-0.716055	-0.000885094	0.235543	282.021
432.5000	-0.670475	-0.000860202	0.231763	281.643
432.0000	-0.586386	-0.000816191	0.227445	281.221
431.5000	-0.657189	-0.000796671	0.223301	280.805
431.0000	-0.531906	-0.000757431	0.219425	280.4
430.5000	-0.686033	-0.000704889	0.215821	280.009
430.0000	-0.648871	-0.000670112	0.212516	279.63
429.5000	-0.569156	-0.000635069	0.209021	279.24
429.0000	-0.447544	-0.000599451	0.205354	278.829
428.5000	-0.455964	-0.000562119	0.201647	278.423
428.0000	-0.363216	-0.000542082	0.197549	278.007
427.5000	-0.387682	-0.000520675	0.194258	277.643
427.0000	-0.413559	-0.000501958	0.19112	277.282
426.5000	-0.289201	-0.000474437	0.188125	276.926
426.0000	-0.242659	-0.000441019	0.184934	276.533
425.5000	-0.191307	-0.000420811	0.18197	276.122
425.0000	-0.231209	-0.000404498	0.178718	275.677
424.5000	-0.122071	-0.0003854	0.175564	275.208
424.0000	-0.0320199	-0.000355107	0.172743	274.752
423.5000	-0.0679485	-0.000339357	0.170678	274.366
423.0000	0.0320913	-0.000318904	0.168548	274.039
422.5000	0.0533156	-0.000297496	0.166098	273.742
422.0000	0.19448	-0.000285112	0.163435	273.454
421.5000	0.424559	-0.000264191	0.16091	273.188
421.0000	0.399492	-0.000255054	0.158628	272.939
420.5000	0.517345	-0.000224143	0.156299	272.689
420.0000	0.598994	-0.00019719	0.154082	272.434
419.5000	0.50064	-0.000176507	0.151917	272.166
419.0000	0.571058	-0.000159106	0.149804	271.913
418.5000	0.701404	-0.000136854	0.147493	271.679
418.0000	0.730134	-0.00011336	0.145664	271.464
417.5000	0.653625	-8.69135E-005	0.143655	271.253
417.0000	0.638691	-6.0659E-005	0.142106	271.068
416.5000	0.744889	-4.74525E-005	0.140753	270.936
416.0000	0.77513	-1.66993E-005	0.139224	270.851
415.5000	0.771851	-3.85593E-006	0.13735	270.751
415.0000	0.693784	4.9891E-006	0.135398	270.607
414.5000	0.822928	2.40399E-005	0.133695	270.413
414.0000	0.763318	4.28344E-005	0.132449	270.217
413.5000	0.49515	5.609E-005	0.131312	270.013
413.0000	0.239363	7.43596E-005	0.130172	269.822
412.5000	0.216684	8.72982E-005	0.129152	269.665
412.0000	0.266559	9.45183E-005	0.128128	269.518
411.5000	0.269931	0.000105941	0.127041	269.387
411.0000	0.316538	0.000121192	0.126026	269.267
410.5000	0.331046	0.0001361	0.125315	269.166
410.0000	0.257308	0.000145175	0.124625	269.067
409.5000	0.321297	0.000164039	0.124116	268.996
409.0000	0.394607	0.00016704	0.12357	268.94
408.5000	0.419322	0.000172416	0.122686	268.881
408.0000	0.331878	0.000183696	0.12175	268.832
407.5000	0.424798	0.000189323	0.120703	268.767
407.0000	0.487646	0.000197191	0.11994	268.7
406.5000	0.376642	0.000201995	0.119233	268.624
406.0000	0.265163	0.000221416	0.118607	268.551
405.5000	0.327637	0.000230752	0.117686	268.457
405.0000	0.38346	0.000236535	0.116938	268.357
404.5000	0.482421	0.000244158	0.116398	268.254
404.0000	0.501482	0.000251963	0.116071	268.116
403.5000	0.487162	0.000269558	0.115724	267.953
403.0000	0.436392	0.000262309	0.115599	267.766
402.5000	0.527089	0.000278303	0.115146	267.565
402.0000	0.397986	0.000281182	0.115161	267.378
401.5000	0.473538	0.000290919	0.115516	267.19
401.0000	0.403559	0.000291521	0.115462	267.006
400.5000	0.46969	0.000307808	0.115533	266.844
400.0000	0.529802	0.000312654	0.115411	266.698
399.5000	0.471269	0.000296533	0.115936	266.573
399.0000	0.380831	0.000302672	0.116454	266.48
398.5000	0.35413	0.000302266	0.116697	266.397
398.0000	0.325937	0.0003023	0.116969	266.341
397.5000	0.20063	0.000286419	0.117059	266.295
397.0000	0.162154	0.000299138	0.117565	266.281
396.5000	0.261348	0.000293883	0.117984	266.307
396.0000	0.167869	0.000297636	0.118483	266.357
395.5000	0.230453	0.000286591	0.118486	266.422
395.0000	0.0964199	0.000278745	0.118697	266.52
394.5000	0.271507	0.000283845	0.119126	266.652
394.0000	0.112403	0.000279641	0.119582	266.808
393.5000	0.126458	0.00027495	0.119704	266.977
393.0000	0.0469273	0.000261964	0.119655	267.157
392.5000	0.142327	0.000270819	0.119726	267.324
392.0000	0.158356	0.000262674	0.120121	267.484
391.5000	-0.00207736	0.000269997	0.120764	267.631
391.0000	0.00394139	0.000279945	0.121061	267.75
390.5000	0.0527127	0.000287624	0.121355	267.879
390.0000	0.0576344	0.000296506	0.121646	267.998
389.5000	0.18431	0.000311339	0.122239	268.105
389.0000	0.272945	0.000303065	0.122909	268.198
388.5000	0.369383	0.000304939	0.123415	268.292
388.0000	0.403495	0.000321919	0.123775	268.38
387.5000	0.303453	0.000317479	0.124408	268.46
387.0000	0.291842	0.000318718	0.125544	268.541
386.5000	0.274518	0.000312529	0.126424	268.609
386.0000	0.253411	0.000311416	0.127409	268.671
385.5000	0.161281	0.000306046	0.128286	268.719
385.0000	0.0736651	0.000312478	0.129333	268.775
384.5000	0.086251	0.000310665	0.130289	268.822
384.0000	-0.119226	0.000314498	0.131626	268.89
383.5000	-0.0437342	0.000322133	0.132553	268.946
383.0000	0.139083	0.000318929	0.133373	269.005
382.5000	0.23961	0.000322447	0.134217	269.058
382.0000	0.277489	0.000321165	0.135496	269.112
381.5000	0.249037	0.000305507	0.136974	269.172
381.0000	0.312402	0.000321761	0.138219	269.24
380.5000	0.161419	0.000313882	0.139309	269.311
380.0000	0.0692967	0.000310221	0.140576	269.376
379.5000	0.0406867	0.000308938	0.141753	269.43
379.0000	0.157317	0.000306988	0.142621	269.489
378.5000	0.182716	0.000309834	0.143217	269.552
378.0000	0.212674	0.000313775	0.143944	269.621
377.5000	0.251655	0.000308626	0.144736	269.681
377.0000	0.445821	0.000318913	0.145383	269.729
376.5000	0.64744	0.000319944	0.146127	269.764
376.0000	0.591114	0.000311517	0.147005	269.803
375.5000	0.722604	0.000296286	0.147421	269.819
375.0000	0.74444	0.000291586	0.148119	269.85
374.5000	0.553712	0.000289213	0.148785	269.872
374.0000	0.585133	0.000285072	0.149428	269.887
373.5000	0.462668	0.000272943	0.149932	269.899
373.0000	0.514031	0.00026264	0.150299	269.919
372.5000	0.493275	0.000252627	0.15055	269.922
372.0000	0.738947	0.000248504	0.150933	269.93
371.5000	0.807084	0.000246753	0.151284	269.943
371.0000	0.832055	0.000220909	0.151957	269.97
370.5000	0.88674	0.000223164	0.15266	269.994
370.0000	0.944624	0.000216742	0.153252	270.022
369.5000	0.929428	0.000194301	0.153782	270.052
369.0000	0.862464	0.000191757	0.154471	270.097
368.5000	0.775284	0.000179654	0.155233	270.142
368.0000	0.596547	0.000161467	0.155927	270.207
367.5000	0.583773	0.000157838	0.156579	270.262
367.0000	0.684468	0.000154178	0.157576	270.333
366.5000	0.763018	0.000148817	0.158334	270.41
366.0000	0.675395	0.000123851	0.159027	270.494
365.5000	0.677792	0.00011466	0.159585	270.567
365.0000	0.882684	0.000110523	0.16	270.639
364.5000	0.856764	9.97773E-005	0.160578	270.705
364.0000	0.904732	9.16996E-005	0.161204	270.793
363.5000	0.793176	9.42015E-005	0.162162	270.882
363.0000	0.77793	7.36193E-005	0.162991	270.964
362.5000	0.718575	6.85286E-005	0.163774	271.055
362.0000	0.808566	6.09194E-005	0.164518	271.145
361.5000	0.860686	6.06777E-005	0.165352	271.227
361.0000	0.79817	5.26381E-005	0.166169	271.31
360.5000	0.781691	5.22667E-005	0.1669	271.405
360.0000	0.980409	5.09328E-005	0.167659	271.493
359.5000	1.14381	5.01586E-005	0.168304	271.579
359.0000	1.11003	2.9596E-005	0.168513	271.647
358.5000	1.21041	2.0065E-005	0.1687	271.723
358.0000	1.1673	1.2114E-005	0.168883	271.796
357.5000	1.3357	1.53953E-005	0.169123	271.874
357.0000	1.28219	-7.33726E-006	0.169655	271.956
356.5000	1.31567	-4.09444E-006	0.170435	272.032
356.0000	1.4064	-9.99115E-006	0.170925	272.114
355.5000	1.42117	-2.50671E-005	0.17122	272.181
355.0000	1.52112	-4.37693E-005	0.171463	272.254
354.5000	1.48108	-4.78296E-005	0.171781	272.335
354.0000	1.51418	-5.67737E-005	0.17222	272.417
353.5000	1.55446	-6.40099E-005	0.172623	272.495
353.0000	1.40594	-8.15198E-005	0.172989	272.577
352.5000	1.49875	-8.89774E-005	0.173338	272.656
352.0000	1.61339	-0.000105378	0.173809	272.745
351.5000	1.56578	-0.00012587	0.17415	272.818
351.0000	1.67871	-0.000150705	0.174918	272.9
350.5000	1.72453	-0.000170989	0.175822	272.984
350.0000	1.44001	-0.000177975	0.176727	273.064
349.5000	1.397	-0.000205937	0.177768	273.149
349.0000	1.40728	-0.00022875	0.178922	273.236
348.5000	1.33932	-0.000239104	0.180332	273.339
348.0000	1.21982	-0.000265935	0.181381	273.432
347.5000	1.19642	-0.000285145	0.182625	273.517
347.0000	1.15154	-0.000310289	0.184018	273.613
346.5000	1.06521	-0.000325066	0.185036	273.692
346.0000	1.19169	-0.000335169	0.185912	273.766
345.5000	1.21542	-0.000364707	0.186932	273.838
345.0000	1.09533	-0.000387395	0.188221	273.93
344.5000	1.33914	-0.000401805	0.189264	273.999
344.0000	1.36623	-0.000429733	0.190728	274.09
343.5000	1.36722	-0.000465293	0.19178	274.167
343.0000	1.44291	-0.000486844	0.192768	274.249
342.5000	1.38012	-0.000493576	0.193623	274.331
342.0000	1.55027	-0.000508185	0.194629	274.43
341.5000	1.73732	-0.000517057	0.195611	274.517
341.0000	1.91128	-0.000517674	0.19671	274.597
340.5000	2.00221	-0.000537849	0.197539	274.678
340.0000	2.1157	-0.000555504	0.198403	274.765
339.5000	2.13056	-0.000575438	0.199067	274.857
339.0000	2.16263	-0.000600098	0.20002	274.949
338.5000	2.29254	-0.000599068	0.201092	275.046
338.0000	2.29258	-0.000616431	0.202154	275.148
337.5000	2.37033	-0.000633237	0.203115	275.248
337.0000	2.47661	-0.000654714	0.204105	275.359
336.5000	2.477	-0.000679848	0.205128	275.455
336.0000	2.59249	-0.000703714	0.206102	275.558
335.5000	2.67432	-0.00072354	0.207208	275.672
335.0000	2.67426	-0.000742831	0.208266	275.782
334.5000	2.64085	-0.000773558	0.209284	275.897
334.0000	2.88151	-0.000809373	0.210454	276.014
333.5000	2.95386	-0.000835608	0.212026	276.136
333.0000	2.9347	-0.000872986	0.213212	276.255
332.5000	2.82063	-0.000911873	0.214127	276.376
332.0000	2.79567	-0.000939077	0.215139	276.499
331.5000	2.88186	-0.000977971	0.216377	276.622
331.0000	2.86974	-0.00101286	0.217795	276.758
330.5000	2.84358	-0.0010294	0.218862	276.883
330.0000	2.7286	-0.00107653	0.21998	277.004
329.5000	2.71978	-0.0011062	0.221298	277.143
329.0000	2.7182	-0.00115782	0.222546	277.287
328.5000	2.73803	-0.00118636	0.223799	277.419
328.0000	2.85252	-0.00120808	0.224834	277.541
327.5000	2.79251	-0.00124181	0.226037	277.661
327.0000	2.73556	-0.00129609	0.227299	277.762
326.5000	2.81749	-0.00132729	0.228796	277.882
326.0000	2.70802	-0.00135934	0.230505	278.019
325.5000	2.67385	-0.00139226	0.232046	278.16
325.0000	2.64504	-0.00143139	0.23332	278.308
324.5000	2.90413	-0.00146538	0.234891	278.469
324.0000	3.01898	-0.00151029	0.236681	278.634
323.5000	3.05589	-0.00154829	0.238603	278.8
323.0000	2.91574	-0.00158442	0.240251	278.965
322.5000	2.93437	-0.00162465	0.241834	279.129
322.0000	3.08804	-0.00166138	0.243406	279.304
321.5000	3.16333	-0.00169782	0.245234	279.481
321.0000	3.13549	-0.00174772	0.247209	279.668
320.5000	3.34538	-0.00176778	0.24914	279.845
320.0000	3.31515	-0.00180041	0.250843	280.016
319.5000	3.31783	-0.00184693	0.252785	280.208
319.0000	3.33062	-0.00186395	0.254723	280.423
318.5000	3.33449	-0.00190134	0.256645	280.647
318.0000	3.43566	-0.00194027	0.258383	280.849
317.5000	3.4966	-0.00196726	0.260042	281.025
317.0000	3.55733	-0.00200197	0.261932	281.196
316.5000	3.64223	-0.00204096	0.263965	281.365
316.0000	3.68887	-0.00207667	0.266073	281.545
315.5000	3.73592	-0.00210905	0.267942	281.735
315.0000	3.94854	-0.00212905	0.269883	281.944
314.5000	3.99079	-0.0021565	0.271879	282.158
314.0000	4.0265	-0.00218598	0.273924	282.366
313.5000	4.0862	-0.00221729	0.276047	282.579
313.0000	4.48489	-0.00223655	0.278327	282.816
312.5000	4.41775	-0.00226296	0.280472	283.053
312.0000	4.36571	-0.00229556	0.282851	283.292
311.5000	4.52433	-0.00230895	0.285139	283.535
311.0000	4.65361	-0.00233483	0.287696	283.781
310.5000	4.6095	-0.00236853	0.290002	284.045
310.0000	4.52144	-0.0023771	0.292569	284.311
309.5000	4.58135	-0.00240966	0.295476	284.606
309.0000	4.60633	-0.00242947	0.298648	284.932
308.5000	4.62392	-0.00246174	0.301648	285.272
308.0000	4.46226	-0.00248667	0.304615	285.604
307.5000	4.50862	-0.00252349	0.308023	285.971
307.0000	4.66211	-0.0025465	0.311276	286.304
306.5000	4.62995	-0.00258046	0.314949	286.677
306.0000	4.7478	-0.00261383	0.318676	287.043
305.5000	4.71639	-0.00263251	0.322687	287.463
305.0000	4.83325	-0.00266633	0.326767	287.878
304.5000	4.6603	-0.00270183	0.331511	288.342
304.0000	4.7187	-0.00272676	0.336431	288.815
303.5000	4.64026	-0.00275498	0.341383	289.293
303.0000	4.5579	-0.00280518	0.346657	289.825
302.5000	4.44051	-0.00284468	0.352251	290.393
302.0000	4.48516	-0.00288205	0.358226	290.979
301.5000	4.58364	-0.00292892	0.364352	291.576
301.0000	4.75018	-0.00294512	0.37047	292.195
300.5000	4.72513	-0.00296701	0.375967	292.754
300.0000	4.8472	-0.00298885	0.382779	293.415
299.5000	4.96738	-0.00301258	0.389335	294.064
299.0000	5.01228	-0.00301531	0.395801	294.718
298.5000	4.94923	-0.00304537	0.402481	295.407
298.0000	5.1899	-0.00304474	0.408883	296.058
297.5000	5.18302	-0.00304041	0.41557	296.732
297.0000	5.07175	-0.00304718	0.421787	297.318
296.5000	5.05913	-0.00303886	0.427623	297.886
296.0000	5.16757	-0.00303312	0.433377	298.453
295.5000	5.18938	-0.00301642	0.439194	298.999
295.0000	5.44	-0.0029827	0.444601	299.489
294.5000	5.51899	-0.0029526	0.449928	299.984
294.0000	5.51286	-0.0029179	0.455206	300.518
293.5000	5.49989	-0.00287956	0.459277	300.948
293.0000	5.52832	-0.00282543	0.463734	301.41
292.5000	5.60886	-0.00278705	0.468125	301.887
292.0000	5.53103	-0.00273663	0.472113	302.336
291.5000	5.54576	-0.00268192	0.476051	302.768
291.0000	5.53261	-0.00262276	0.47989	303.189
290.5000	5.36368	-0.00255131	0.483991	303.629
290.0000	5.21766	-0.00248818	0.487983	304.039
289.5000	5.08474	-0.0024214	0.491314	304.414
289.0000	5.01049	-0.00235566	0.49469	304.8
288.5000	5.12892	-0.00230257	0.49851	305.242
288.0000	4.86179	-0.0022384	0.502153	305.67
287.5000	4.90513	-0.00215838	0.505945	306.125
287.0000	4.634	-0.00210482	0.509731	306.621
286.5000	4.34149	-0.00203084	0.513235	307.109
286.0000	4.21543	-0.00193518	0.516912	307.578
285.5000	4.09638	-0.00185836	0.520931	308.03
285.0000	3.86207	-0.0017786	0.52526	308.519
284.5000	3.8648	-0.0017111	0.529235	308.974
284.0000	3.63917	-0.00163201	0.53352	309.46
283.5000	3.48501	-0.00155236	0.537957	309.949
283.0000	3.03745	-0.00147069	0.542287	310.432
282.5000	2.98189	-0.00137302	0.547137	310.965
282.0000	2.90412	-0.00129436	0.552028	311.535
281.5000	2.75133	-0.0012262	0.556659	312.083
281.0000	2.52956	-0.00116227	0.561662	312.649
280.5000	2.34213	-0.00107749	0.566989	313.272
280.0000	2.06399	-0.000977827	0.572561	313.918
279.5000	1.86282	-0.000878465	0.578327	314.594
279.0000	1.51723	-0.000799759	0.583994	315.271
278.5000	1.50238	-0.000729622	0.590402	316.017
278.0000	1.47051	-0.000642791	0.597942	316.841
277.5000	1.29524	-0.000566746	0.604943	317.609
277.0000	1.46419	-0.000485975	0.612582	318.474
276.5000	1.25265	-0.000371167	0.620507	319.385
276.0000	0.910838	-0.000298125	0.627981	320.237
275.5000	0.709173	-0.000215388	0.636935	321.226
275.0000	0.840609	-0.000131689	0.646388	322.275
274.5000	0.907329	-6.23136E-005	0.656099	323.374
274.0000	0.617082	8.18213E-006	0.666594	324.593
273.5000	0.368521	7.06704E-005	0.676802	325.743
273.0000	0.215446	0.00015836	0.688319	327.035
272.5000	-0.104899	0.000243711	0.700405	328.4
272.0000	-0.371076	0.000320097	0.71293	329.834
271.5000	-0.316895	0.000395686	0.726758	331.419
271.0000	-0.39261	0.000452273	0.740885	333.006
270.5000	-0.380893	0.000521749	0.75598	334.687
270.0000	-0.455683	0.000598863	0.771407	336.445
269.5000	-0.898825	0.000669351	0.787299	338.299
269.0000	-0.773784	0.000756086	0.803257	340.15
268.5000	-1.084	0.000815393	0.821007	342.201
268.0000	-0.876807	0.000860637	0.83984	344.371
267.5000	-0.805473	0.000918195	0.859465	346.649
267.0000	-0.765089	0.000966281	0.880553	349.144
266.5000	-0.719989	0.00103247	0.902506	351.773
266.0000	-0.829151	0.00107235	0.923436	354.24
265.5000	-0.674459	0.00111516	0.946387	356.927
265.0000	-0.673299	0.00115205	0.970851	359.854
264.5000	-0.678544	0.00116626	0.99427	362.701
264.0000	-0.23289	0.00123428	1.01814	365.62
263.5000	0.126271	0.00127601	1.04386	368.753
263.0000	0.0758246	0.00126654	1.06733	371.635
262.5000	0.425923	0.00131973	1.09322	374.878
262.0000	0.487397	0.00131132	1.11785	378.029
261.5000	0.846856	0.00130089	1.14316	381.251
261.0000	1.11041	0.00128706	1.16792	384.37
260.5000	0.927505	0.00126259	1.19415	387.717
260.0000	1.29843	0.00127561	1.22059	391.132
259.5000	1.35478	0.00126781	1.24752	394.648
259.0000	1.56655	0.00124184	1.27491	398.276
258.5000	2.30844	0.00118537	1.30343	402.031
258.0000	2.29902	0.00112862	1.33274	405.913
257.5000	3.03861	0.00114224	1.3613	409.718
257.0000	3.73444	0.0010964	1.39252	413.902
256.5000	3.96907	0.00106609	1.42327	418.042
256.0000	5.14928	0.00103918	1.45701	422.59
255.5000	4.97156	0.000929937	1.49236	427.369
255.0000	5.82925	0.000844523	1.52904	432.377
254.5000	6.34901	0.000772415	1.56537	437.377
254.0000	6.79837	0.000670517	1.60321	442.614
253.5000	7.25508	0.000615547	1.64709	448.673
253.0000	7.14077	0.000580069	1.6881	454.418
252.5000	6.47497	0.000430062	1.75098	463.382
252.0000	7.80805	0.000290978	1.80524	471.197
251.5000	8.05124	0.000183878	1.85436	478.329
251.0000	8.6148	0.000125334	1.90546	485.78
250.5000	8.80258	2.54053E-005	1.95802	493.565
250.0000	8.27809	-0.000100657	2.00933	501.277
249.5000	7.99911	-0.000219022	2.06222	509.329
249.0000	7.84277	-0.000453078	2.1196	518.165
248.5000	8.29736	-0.000541947	2.17596	526.923
248.0000	8.91366	-0.000624309	2.23726	536.589
247.5000	8.99493	-0.0009355	2.29703	546.176
247.0000	10.6528	-0.00104718	2.36181	556.733
246.5000	11.0762	-0.000883871	2.42887	567.8
246.0000	10.948	-0.000973659	2.49842	579.434
245.5000	11.869	-0.001021	2.57332	592.251
245.0000	13.4399	-0.00129337	2.65088	605.761
244.5000	16.0008	-0.00144891	2.73109	619.982
244.0000	15.6396	-0.00178295	2.81374	634.956
243.5000	12.3962	-0.0016501	2.89416	649.847
243.0000	12.3515	-0.00172098	2.97593	665.34
242.5000	11.9111	-0.00192039	3.06734	683.06
242.0000	11.9018	-0.00153403	3.14714	698.876
241.5000	12.7149	-0.00137042	3.23574	716.826
241.0000	11.7841	-0.00121035	3.31544	733.343
240.5000	11.6233	-0.00106131	3.40217	751.818
240.0000	11.0402	-0.0011069	3.47918	768.603
239.5000	10.1239	-0.00087944	3.56573	787.922
239.0000	9.52339	-0.000709334	3.63757	804.314
238.5000	5.80302	-0.000834772	3.70945	821.113
238.0000	2.76505	-0.000957508	3.78012	838.115
237.5000	-0.89983	-0.00118861	3.83929	852.75
237.0000	-4.60677	-0.00115834	3.89673	867.319
236.5000	-8.5507	-0.000895602	3.94862	880.846
236.0000	-9.0292	-0.000554909	3.99297	892.718
235.5000	-8.09398	-0.000594604	4.03782	905.183
235.0000	-8.16471	-0.000619851	4.06461	912.893
234.5000	-7.21354	-0.000294812	4.09	920.412
234.0000	-12.0018	-0.000287747	4.11332	927.571
233.5000	-10.8314	-0.000312951	4.13505	934.546
233.0000	-12.4622	-0.000262605	4.15305	940.765
232.5000	-12.3192	-0.000192822	4.16582	945.734
232.0000	-12.0621	-0.000208795	4.17578	950.401
231.5000	-11.8575	5.45258E-006	4.18038	953.43
231.0000	-13.9986	-0.000315088	4.18244	956.083
230.5000	-15.4016	-0.000523471	4.18159	958.133
230.0000	-13.7943	-0.000325633	4.17836	959.599
229.5000	-13.998	-0.000117446	4.17323	960.725
229.0000	-11.608	0.000207433	4.16666	961.555
228.5000	-10.8979	0.000103855	4.15915	962.14
228.0000	-5.95367	0.000125236	4.15132	962.555
227.5000	-5.86469	-0.000145636	4.14209	962.889
227.0000	-5.97546	-0.000105397	4.13229	963.117
226.5000	-6.26438	-4.87189E-005	4.12166	963.292
226.0000	-5.49653	-0.000303961	4.1116	963.418
225.5000	-1.48784	-0.000330711	4.10054	963.501
225.0000	-0.508657	-0.00058935	4.08901	963.62
224.5000	0.193881	-0.00038989	4.07709	963.719
224.0000	-5.80334	-0.000521044	4.06506	963.776
223.5000	-5.26222	-0.000713534	4.05336	963.846
223.0000	-6.01126	-0.000932567	4.04169	963.882
222.5000	-5.11724	-0.00080434	4.02699	963.867
222.0000	-4.80886	-0.000826536	4.01359	963.882
221.5000	-3.14361	-0.000662585	3.99964	963.938
221.0000	-3.94572	-0.000915697	3.98761	963.968
220.5000	-2.65751	-0.000714991	3.97545	963.991
220.0000	-3.08815	-0.000615203	3.96272	964.052

##### Extended Information
[Comments]
Sample name	JS187+JS190_5E-5_H2O_56-44_100EQDT+72H
Comment
User
Division
Company	Labo systeme complexes hors equilibre

[Detailed Information]
Creation date	1/26/2024 10:46 AM

Data array type	Linear data array * 4
Horizontal axis	Wavelength [nm]
Vertical axis(1)	CD [mdeg]
Vertical axis(2)	LD [dOD]
Vertical axis(3)	Abs
Vertical axis(4)	HT [V]
Start	700 nm
End	220 nm
Data interval	0.5 nm
Data points	961     

[Measurement Information]
Instrument name	CD Jasco
Model name	J-1500
Serial No.	A005261638

Detector	PM-539
Detector S/N	A0052PM539
  Lock-in amp.	X mode
  HT volt	Auto

Detector	EXPML-535
Detector S/N	A0001
  Lock-in amp.	X mode
  HT volt	Auto

Measurement date	1/26/2024 10:46 AM

Overload detect	1
Photometric mode	CD, LD, Abs, HT
Measure range	700 - 220 nm
Data pitch	0.5 nm
CD scale	200 mdeg/1.0 dOD
FL scale	200 mdeg/1.0 dOD
D.I.T.	1 sec
Bandwidth	1.00 nm
Start mode	Immediately
Scanning speed	500 nm/min
Baseline correction	Baseline
Shutter control	Auto


