TITLE	JS187+JS190_5E-5_H2O_80-20_100EQDT+72H
DATA TYPE	
ORIGIN	JASCO
OWNER	
DATE	24/01/26
TIME	10:01:27
SPECTROMETER/DATA SYSTEM	
LOCALE	1033
RESOLUTION	
DELTAX	-0.5
XUNITS	NANOMETERS
YUNITS	CD [mdeg]
Y2UNITS	LD [dOD]
Y3UNITS	ABSORBANCE
Y4UNITS	HT [V]
FIRSTX	  700.0000
LASTX	  220.0000
NPOINTS	     961
FIRSTY	    -0.03437
MAXY	    44.64072
MINY	   -24.32737
XYDATA
700.0000	-0.0343722	-0.000364079	0.0124457	305.538
699.5000	-0.450991	-0.000372223	0.0116748	305.259
699.0000	-0.399721	-0.000373984	0.0109122	304.935
698.5000	-0.3373	-0.00034455	0.0104818	304.557
698.0000	-0.271432	-0.000348784	0.00984036	304.16
697.5000	-0.388878	-0.000334358	0.00877203	303.748
697.0000	-0.626234	-0.000326367	0.00731344	303.281
696.5000	-0.609562	-0.000319976	0.00669164	302.811
696.0000	-0.771932	-0.000333011	0.00670823	302.283
695.5000	-0.551636	-0.000338335	0.00668629	301.753
695.0000	-0.73408	-0.000356794	0.00713371	301.269
694.5000	-0.827075	-0.000361768	0.00741962	300.791
694.0000	-0.710302	-0.000367334	0.00870832	300.331
693.5000	-0.703017	-0.000362361	0.0102922	299.904
693.0000	-0.92026	-0.00035377	0.0125718	299.541
692.5000	-0.983332	-0.000352922	0.014774	299.194
692.0000	-1.05469	-0.000328064	0.0171866	298.908
691.5000	-0.721717	-0.000344641	0.0198566	298.656
691.0000	-0.760503	-0.000343651	0.0224996	298.419
690.5000	-0.970499	-0.000341296	0.0242889	298.208
690.0000	-1.04463	-0.000348705	0.0256942	298.008
689.5000	-1.20552	-0.000336574	0.0269875	297.821
689.0000	-1.18291	-0.000334054	0.0289341	297.679
688.5000	-1.10091	-0.000340057	0.0308686	297.615
688.0000	-1.32803	-0.000321968	0.0336197	297.656
687.5000	-1.459	-0.000313759	0.0368871	297.794
687.0000	-1.61255	-0.000299469	0.0398509	297.982
686.5000	-1.68198	-0.000301364	0.0423873	298.22
686.0000	-1.78023	-0.000326829	0.043559	298.462
685.5000	-1.68407	-0.000315984	0.0438266	298.723
685.0000	-1.71883	-0.000327539	0.0436748	298.98
684.5000	-1.76083	-0.000326425	0.0430282	299.233
684.0000	-1.59736	-0.000327108	0.0417421	299.464
683.5000	-1.74827	-0.000331918	0.0409088	299.699
683.0000	-1.8768	-0.000314233	0.0399208	299.933
682.5000	-2.03001	-0.0003222	0.03952	300.177
682.0000	-1.44596	-0.00031179	0.0389013	300.439
681.5000	-1.54147	-0.000316997	0.0389656	300.717
681.0000	-1.38513	-0.000314753	0.0391219	301.017
680.5000	-1.07247	-0.000309647	0.0393446	301.3
680.0000	-1.03336	-0.000322911	0.0382108	301.523
679.5000	-1.07282	-0.000343737	0.036424	301.677
679.0000	-1.07939	-0.000331754	0.033417	301.762
678.5000	-0.760649	-0.000327197	0.0315069	301.816
678.0000	-0.642955	-0.000298287	0.0296576	301.835
677.5000	-0.66604	-0.000284132	0.0284057	301.82
677.0000	-0.878017	-0.000273644	0.0279124	301.804
676.5000	-0.630279	-0.000264691	0.0279795	301.771
676.0000	-0.717555	-0.000275959	0.0281839	301.747
675.5000	-0.844264	-0.000294651	0.0284184	301.726
675.0000	-0.775162	-0.00030584	0.0288127	301.706
674.5000	-0.920995	-0.000312447	0.0297293	301.704
674.0000	-1.12242	-0.00031125	0.0306629	301.707
673.5000	-1.10677	-0.000305402	0.0316936	301.719
673.0000	-1.14491	-0.000283839	0.0318603	301.744
672.5000	-1.36614	-0.000283577	0.0319854	301.775
672.0000	-1.50311	-0.000275792	0.0323303	301.804
671.5000	-1.43258	-0.000246907	0.0333179	301.851
671.0000	-1.69493	-0.000255804	0.0342925	301.9
670.5000	-1.62493	-0.000240497	0.0353892	301.943
670.0000	-1.78962	-0.000229645	0.0362768	301.989
669.5000	-1.74931	-0.000233095	0.0366969	302.044
669.0000	-1.76831	-0.000230828	0.0372874	302.114
668.5000	-1.60347	-0.000253594	0.0378998	302.19
668.0000	-1.65056	-0.000267933	0.0384078	302.288
667.5000	-1.47663	-0.00025601	0.0387142	302.384
667.0000	-1.50825	-0.000238123	0.0389319	302.498
666.5000	-1.3385	-0.00022617	0.0388819	302.586
666.0000	-1.41581	-0.00022044	0.0382428	302.694
665.5000	-1.53208	-0.000217165	0.0381321	302.812
665.0000	-1.47717	-0.000231805	0.038638	302.913
664.5000	-1.13864	-0.000218057	0.0395382	303.022
664.0000	-1.42817	-0.000216849	0.0397215	303.128
663.5000	-1.49103	-0.000230351	0.0387754	303.22
663.0000	-1.12829	-0.000231138	0.0385787	303.303
662.5000	-1.18339	-0.000216064	0.0383097	303.383
662.0000	-1.01736	-0.000237801	0.0379804	303.453
661.5000	-1.30136	-0.000244563	0.0380376	303.498
661.0000	-1.41907	-0.000250764	0.0377843	303.538
660.5000	-1.55495	-0.000233789	0.037182	303.554
660.0000	-1.39883	-0.000234781	0.0368972	303.565
659.5000	-1.52806	-0.000228435	0.036156	303.565
659.0000	-1.53076	-0.000246433	0.0355787	303.544
658.5000	-1.70291	-0.00025144	0.0352243	303.511
658.0000	-1.70857	-0.000257491	0.0351593	303.453
657.5000	-1.47155	-0.000264015	0.0344813	303.372
657.0000	-1.83038	-0.000267941	0.0348887	303.29
656.5000	-1.8971	-0.000277169	0.0339212	303.161
656.0000	-1.66776	-0.000271318	0.0329899	303.012
655.5000	-1.36477	-0.000272327	0.0334892	302.847
655.0000	-1.52107	-0.000270278	0.0332544	302.665
654.5000	-1.52274	-0.000269099	0.0323564	302.468
654.0000	-1.72754	-0.000262509	0.0323724	302.28
653.5000	-1.72795	-0.000254049	0.0331092	302.103
653.0000	-1.57348	-0.000232468	0.0341021	301.93
652.5000	-1.61899	-0.000216354	0.0350482	301.78
652.0000	-1.34785	-0.000214355	0.036265	301.664
651.5000	-1.58028	-0.000200971	0.0379469	301.575
651.0000	-1.62522	-0.000210617	0.0401545	301.52
650.5000	-1.63413	-0.000193483	0.041622	301.491
650.0000	-1.42175	-0.000194798	0.0434678	301.483
649.5000	-1.54418	-0.000189754	0.0448502	301.506
649.0000	-1.59369	-0.000186379	0.0464004	301.545
648.5000	-1.39274	-0.000182503	0.0471865	301.622
648.0000	-1.32193	-0.000172774	0.0484389	301.733
647.5000	-1.55359	-0.000179225	0.0495695	301.858
647.0000	-1.70943	-0.000180298	0.0503252	302.021
646.5000	-1.49363	-0.000194988	0.0510147	302.199
646.0000	-1.26617	-0.000205012	0.0525282	302.372
645.5000	-1.0761	-0.000186553	0.053116	302.531
645.0000	-1.03368	-0.000188674	0.0525675	302.677
644.5000	-0.885312	-0.000190532	0.0523612	302.809
644.0000	-0.902768	-0.00018516	0.0523333	302.92
643.5000	-1.0784	-0.000203406	0.0517656	302.992
643.0000	-0.90162	-0.000204482	0.0511246	303.028
642.5000	-0.742245	-0.000207539	0.0507246	303.058
642.0000	-0.682666	-0.000175311	0.0503549	303.054
641.5000	-0.568784	-0.000183378	0.050161	303.059
641.0000	-0.589492	-0.000191765	0.050108	303.031
640.5000	-0.846464	-0.000188946	0.0504834	302.992
640.0000	-0.873	-0.000189841	0.0510732	302.94
639.5000	-0.887947	-0.000194958	0.0519165	302.87
639.0000	-0.895473	-0.000187783	0.0524973	302.791
638.5000	-0.858235	-0.000205342	0.0535231	302.7
638.0000	-1.00122	-0.000199953	0.054081	302.619
637.5000	-1.00818	-0.000195712	0.0544217	302.535
637.0000	-1.09495	-0.000181033	0.0556788	302.454
636.5000	-1.20079	-0.000204685	0.0566211	302.371
636.0000	-1.18197	-0.000230526	0.056943	302.296
635.5000	-1.01629	-0.000221164	0.0574527	302.232
635.0000	-1.24951	-0.00022274	0.0585665	302.188
634.5000	-1.32775	-0.000235458	0.0594757	302.139
634.0000	-1.58392	-0.000252565	0.060375	302.1
633.5000	-1.68914	-0.000262995	0.0609766	302.072
633.0000	-1.61971	-0.000263552	0.0620193	302.039
632.5000	-1.5097	-0.000259579	0.0624781	302.012
632.0000	-1.18023	-0.000249162	0.062903	301.982
631.5000	-1.38796	-0.000240315	0.063576	301.948
631.0000	-1.27447	-0.000223186	0.064211	301.915
630.5000	-1.19374	-0.000214892	0.0648883	301.888
630.0000	-1.34684	-0.000202993	0.0656839	301.864
629.5000	-1.36205	-0.000219964	0.0665308	301.832
629.0000	-1.3086	-0.000217092	0.0671694	301.803
628.5000	-1.50744	-0.000230957	0.0675665	301.77
628.0000	-1.42289	-0.000208773	0.0682731	301.74
627.5000	-1.60525	-0.000198716	0.0692578	301.703
627.0000	-1.64188	-0.000213156	0.0697318	301.668
626.5000	-1.691	-0.000213058	0.0697614	301.619
626.0000	-1.79555	-0.000209223	0.0699567	301.578
625.5000	-1.86628	-0.00019837	0.070852	301.545
625.0000	-1.86329	-0.000216094	0.0718725	301.517
624.5000	-2.0615	-0.000233312	0.0729061	301.493
624.0000	-2.19007	-0.000223352	0.0738736	301.483
623.5000	-2.14258	-0.000224501	0.0749302	301.486
623.0000	-2.26475	-0.000242477	0.0760931	301.515
622.5000	-2.35385	-0.000231603	0.0773629	301.552
622.0000	-2.33481	-0.000237991	0.0783098	301.594
621.5000	-2.51969	-0.000241127	0.0792114	301.639
621.0000	-2.38556	-0.000240415	0.0803033	301.706
620.5000	-2.39068	-0.000253336	0.0810896	301.781
620.0000	-2.38697	-0.000251788	0.081799	301.871
619.5000	-2.37403	-0.000265186	0.0828481	301.985
619.0000	-2.31122	-0.000278671	0.0844472	302.124
618.5000	-2.32178	-0.000273773	0.0864777	302.279
618.0000	-2.47884	-0.000265137	0.0883671	302.424
617.5000	-2.19761	-0.000270547	0.0892577	302.576
617.0000	-2.26989	-0.000246908	0.0898436	302.731
616.5000	-2.21066	-0.00024486	0.0904855	302.887
616.0000	-2.02042	-0.000241322	0.0915487	303.04
615.5000	-1.98753	-0.000259635	0.0922587	303.197
615.0000	-1.90449	-0.000269326	0.092903	303.357
614.5000	-1.82386	-0.000289205	0.093344	303.514
614.0000	-1.90759	-0.000303143	0.0937636	303.666
613.5000	-1.56197	-0.000301201	0.094529	303.829
613.0000	-1.81668	-0.000287143	0.0951287	303.993
612.5000	-1.95388	-0.000278934	0.0959812	304.17
612.0000	-1.61069	-0.000278935	0.0969276	304.346
611.5000	-1.6762	-0.000270253	0.0980617	304.509
611.0000	-1.78231	-0.000275831	0.0985693	304.662
610.5000	-1.6827	-0.000269743	0.0990177	304.817
610.0000	-1.56269	-0.000291138	0.0992691	304.959
609.5000	-1.63481	-0.000288893	0.10023	305.108
609.0000	-1.67335	-0.000298661	0.101045	305.24
608.5000	-1.70874	-0.000288347	0.102299	305.378
608.0000	-1.95152	-0.000277848	0.103102	305.504
607.5000	-2.19092	-0.00029376	0.103508	305.631
607.0000	-2.00471	-0.000279887	0.104378	305.767
606.5000	-2.12656	-0.00027161	0.105298	305.895
606.0000	-2.14379	-0.000243114	0.106835	306.015
605.5000	-2.38036	-0.000232569	0.108057	306.134
605.0000	-2.33151	-0.000232886	0.109596	306.25
604.5000	-2.23565	-0.000224659	0.110725	306.348
604.0000	-2.42918	-0.000213401	0.112087	306.441
603.5000	-2.29171	-0.000229261	0.11356	306.527
603.0000	-2.2044	-0.000227103	0.114628	306.615
602.5000	-2.24365	-0.000219357	0.116177	306.703
602.0000	-1.82854	-0.000211098	0.117871	306.787
601.5000	-1.98643	-0.000220824	0.119535	306.882
601.0000	-1.90188	-0.000197549	0.121185	306.974
600.5000	-1.77797	-0.000190995	0.123292	307.057
600.0000	-1.67375	-0.000192374	0.125061	307.132
599.5000	-1.64045	-0.000177373	0.127546	307.19
599.0000	-1.53892	-0.000167229	0.129658	307.246
598.5000	-1.5075	-0.000160846	0.132239	307.29
598.0000	-1.41798	-0.000139202	0.134492	307.341
597.5000	-1.31319	-0.000139342	0.136472	307.385
597.0000	-1.02835	-0.000130461	0.138839	307.436
596.5000	-0.948974	-0.000126439	0.141234	307.466
596.0000	-0.908241	-0.000125336	0.143622	307.489
595.5000	-0.906139	-0.000119465	0.146036	307.53
595.0000	-1.00564	-0.000115326	0.148661	307.553
594.5000	-0.979942	-0.000115113	0.151416	307.589
594.0000	-0.71448	-9.02523E-005	0.153798	307.641
593.5000	-0.587508	-7.78526E-005	0.15661	307.679
593.0000	-0.572007	-7.73238E-005	0.159786	307.719
592.5000	-0.42002	-7.33814E-005	0.162563	307.789
592.0000	-0.425191	-7.27019E-005	0.165325	307.879
591.5000	-0.352101	-6.94728E-005	0.167769	307.967
591.0000	-0.124601	-4.67971E-005	0.170793	308.066
590.5000	0.0676967	-4.86895E-005	0.173711	308.197
590.0000	0.177021	-5.79148E-005	0.176735	308.328
589.5000	0.320313	-7.04284E-005	0.18001	308.469
589.0000	0.379679	-8.0931E-005	0.183396	308.625
588.5000	0.462507	-7.61101E-005	0.18669	308.798
588.0000	0.591148	-7.44805E-005	0.190542	309.009
587.5000	0.74559	-4.6073E-005	0.194435	309.241
587.0000	1.11577	-4.46971E-005	0.198424	309.519
586.5000	1.3534	-1.50159E-005	0.202128	309.778
586.0000	1.28635	7.08155E-006	0.206557	310.057
585.5000	1.4077	-3.15757E-006	0.21074	310.365
585.0000	1.83336	1.13732E-005	0.214886	310.686
584.5000	2.2791	3.24274E-005	0.218983	311.003
584.0000	2.68331	6.40032E-005	0.223692	311.355
583.5000	2.95647	9.09772E-005	0.228545	311.719
583.0000	3.37693	0.000106215	0.234068	312.127
582.5000	3.8629	0.000133473	0.239463	312.563
582.0000	4.22458	0.000176995	0.245029	313.012
581.5000	4.59208	0.000215557	0.250939	313.501
581.0000	5.14108	0.000250765	0.257349	314.013
580.5000	5.58883	0.000290109	0.263815	314.537
580.0000	6.11769	0.000326454	0.270157	315.069
579.5000	6.922	0.000358487	0.276549	315.621
579.0000	7.47305	0.000405005	0.283194	316.188
578.5000	8.27723	0.000453998	0.290446	316.773
578.0000	9.36904	0.0004987	0.297667	317.387
577.5000	10.3755	0.000563833	0.304868	318.058
577.0000	11.1952	0.000627139	0.312734	318.708
576.5000	12.1471	0.000680098	0.321383	319.43
576.0000	13.1407	0.000719085	0.329803	320.138
575.5000	14.1067	0.00075823	0.338983	320.907
575.0000	15.2896	0.000793387	0.3471	321.629
574.5000	16.5578	0.000853286	0.356253	322.424
574.0000	17.6503	0.000896514	0.365536	323.205
573.5000	18.8552	0.00093845	0.374806	323.996
573.0000	20.4383	0.00100423	0.384315	324.861
572.5000	21.6197	0.00104701	0.393228	325.677
572.0000	23.1969	0.00109742	0.40346	326.632
571.5000	24.4953	0.001143	0.413504	327.547
571.0000	26.016	0.00121028	0.424787	328.531
570.5000	27.6519	0.00126833	0.435735	329.536
570.0000	28.9998	0.00133025	0.446369	330.526
569.5000	30.3838	0.00136866	0.458057	331.56
569.0000	31.4841	0.00140589	0.469787	332.596
568.5000	32.8227	0.00145982	0.480439	333.592
568.0000	34.2796	0.00152338	0.491162	334.625
567.5000	35.5544	0.00158069	0.50211	335.676
567.0000	36.7658	0.00163535	0.512883	336.673
566.5000	38.1127	0.00167096	0.523512	337.639
566.0000	39.0541	0.00171096	0.533858	338.576
565.5000	40.2475	0.00174878	0.543773	339.507
565.0000	41.2334	0.00180383	0.553571	340.393
564.5000	42.0953	0.00182579	0.563398	341.277
564.0000	43.0048	0.00184857	0.572587	342.067
563.5000	43.4231	0.00188443	0.581077	342.82
563.0000	43.7761	0.00189797	0.589377	343.585
562.5000	43.9144	0.00188335	0.59699	344.257
562.0000	44.1762	0.00188356	0.604172	344.88
561.5000	44.1897	0.00185833	0.611995	345.519
561.0000	44.387	0.00184508	0.618906	346.106
560.5000	44.6407	0.00184487	0.625277	346.648
560.0000	44.5245	0.00181645	0.631427	347.139
559.5000	44.0875	0.00177363	0.637214	347.546
559.0000	43.706	0.00172147	0.642042	347.879
558.5000	43.0074	0.00167736	0.645865	348.143
558.0000	42.5084	0.00164166	0.64908	348.355
557.5000	41.7496	0.0015979	0.652169	348.519
557.0000	41.0184	0.00154184	0.654899	348.631
556.5000	40.1285	0.00149973	0.656585	348.683
556.0000	39.1034	0.00145862	0.657371	348.693
555.5000	38.2139	0.00140933	0.658044	348.656
555.0000	37.5175	0.0013316	0.658477	348.573
554.5000	36.9668	0.0012691	0.658812	348.439
554.0000	36.0551	0.00122594	0.658262	348.272
553.5000	35.1526	0.00121604	0.657341	348.064
553.0000	34.1942	0.00117038	0.656216	347.844
552.5000	33.4693	0.00111893	0.655302	347.594
552.0000	32.6097	0.00104561	0.65388	347.285
551.5000	31.7623	0.00102671	0.652437	346.988
551.0000	31.1305	0.000988385	0.650385	346.669
550.5000	30.7688	0.000978765	0.64823	346.323
550.0000	30.01	0.000966815	0.646237	345.966
549.5000	29.481	0.00092527	0.644346	345.601
549.0000	29.3209	0.000933741	0.642089	345.259
548.5000	29.2059	0.000920524	0.639803	344.927
548.0000	28.7698	0.000873767	0.638409	344.564
547.5000	28.9662	0.000875138	0.637116	344.237
547.0000	28.6783	0.000870201	0.635775	343.883
546.5000	28.6227	0.000894468	0.634256	343.576
546.0000	28.7464	0.000900202	0.63241	343.308
545.5000	28.89	0.00093984	0.63168	343.045
545.0000	29.035	0.000917195	0.631016	342.837
544.5000	29.391	0.000940468	0.630369	342.619
544.0000	29.3395	0.000954316	0.62962	342.438
543.5000	29.8455	0.000977813	0.629238	342.281
543.0000	30.1035	0.000971589	0.629399	342.166
542.5000	30.5082	0.00099553	0.630006	342.067
542.0000	30.9589	0.00101786	0.630537	341.995
541.5000	31.5025	0.00101151	0.631319	341.97
541.0000	31.6672	0.00101148	0.632037	341.96
540.5000	31.9061	0.00103049	0.633707	341.976
540.0000	32.5578	0.00105517	0.635664	342.006
539.5000	32.973	0.00109091	0.637691	342.097
539.0000	33.4486	0.00110704	0.639713	342.223
538.5000	34.2008	0.00112604	0.642288	342.387
538.0000	34.8817	0.00113566	0.645192	342.542
537.5000	35.3952	0.00114125	0.648385	342.738
537.0000	36.1381	0.00115443	0.651596	342.959
536.5000	36.5192	0.00117393	0.655054	343.19
536.0000	37.1652	0.00118697	0.659138	343.469
535.5000	37.7088	0.00121239	0.663378	343.773
535.0000	38.1718	0.00126432	0.66807	344.107
534.5000	38.4832	0.0012646	0.672471	344.423
534.0000	38.8292	0.0012693	0.677288	344.787
533.5000	38.8864	0.00129371	0.682199	345.183
533.0000	39.1901	0.00129953	0.686766	345.555
532.5000	39.6835	0.00130452	0.691495	345.95
532.0000	39.7888	0.0013084	0.696689	346.381
531.5000	40.0013	0.00127904	0.702084	346.818
531.0000	40.0579	0.00127576	0.708276	347.277
530.5000	40.2276	0.00127828	0.714046	347.733
530.0000	40.0062	0.00125595	0.719856	348.211
529.5000	40.2717	0.00125272	0.725539	348.676
529.0000	40.2443	0.0012653	0.731082	349.098
528.5000	40.2147	0.00128039	0.736509	349.531
528.0000	40.2314	0.00126307	0.741715	349.944
527.5000	40.0347	0.00126058	0.747166	350.356
527.0000	39.8058	0.00122238	0.752952	350.79
526.5000	39.2873	0.00119231	0.758155	351.199
526.0000	39.1677	0.00116929	0.763783	351.621
525.5000	38.7316	0.00113086	0.769153	352.014
525.0000	38.2975	0.00111162	0.774306	352.388
524.5000	37.7452	0.00111197	0.779214	352.725
524.0000	37.3125	0.00106203	0.783691	353.022
523.5000	36.8434	0.00105015	0.787968	353.332
523.0000	36.1668	0.00102282	0.791879	353.603
522.5000	35.4696	0.000980302	0.795266	353.846
522.0000	34.4391	0.000943255	0.798907	354.087
521.5000	33.5505	0.000910699	0.802735	354.324
521.0000	32.177	0.000870587	0.806194	354.543
520.5000	30.9153	0.000778136	0.809594	354.756
520.0000	30.2528	0.000727457	0.812463	354.925
519.5000	28.9474	0.000665883	0.815495	355.081
519.0000	27.864	0.000616126	0.818105	355.22
518.5000	27.1221	0.000576034	0.820246	355.344
518.0000	26.2245	0.000500264	0.822859	355.481
517.5000	25.1488	0.000452951	0.825432	355.606
517.0000	24.2331	0.000368358	0.828212	355.728
516.5000	23.2194	0.00031117	0.830919	355.838
516.0000	22.6517	0.000260874	0.833562	355.964
515.5000	21.7282	0.00021522	0.835757	356.093
515.0000	20.7649	0.000153829	0.837854	356.2
514.5000	19.7707	0.000125038	0.839949	356.321
514.0000	19.0083	6.42244E-005	0.841948	356.422
513.5000	18.7427	1.02355E-005	0.84404	356.524
513.0000	18.0216	-6.48143E-005	0.845744	356.623
512.5000	17.4633	-9.58357E-005	0.847916	356.745
512.0000	16.7855	-0.000147661	0.850101	356.863
511.5000	16.2529	-0.000184101	0.851834	356.971
511.0000	15.5254	-0.000232417	0.853734	357.079
510.5000	14.9814	-0.000258846	0.855826	357.181
510.0000	14.4462	-0.000292889	0.857938	357.289
509.5000	13.6817	-0.000343589	0.859791	357.385
509.0000	13.4359	-0.000324548	0.861473	357.476
508.5000	12.8802	-0.00035976	0.862929	357.532
508.0000	12.4336	-0.000401326	0.864591	357.576
507.5000	11.3187	-0.000437986	0.866251	357.61
507.0000	10.5207	-0.00048279	0.8681	357.659
506.5000	10.0049	-0.000534048	0.86991	357.708
506.0000	9.41092	-0.000556171	0.87127	357.753
505.5000	8.67995	-0.00055511	0.872557	357.788
505.0000	8.23278	-0.000605577	0.87398	357.829
504.5000	7.69821	-0.000634831	0.875409	357.857
504.0000	7.39197	-0.000663825	0.87643	357.847
503.5000	6.42353	-0.000682676	0.87729	357.825
503.0000	5.70609	-0.000701508	0.878005	357.77
502.5000	5.33371	-0.000722394	0.878429	357.704
502.0000	4.34205	-0.000764197	0.878717	357.631
501.5000	3.85399	-0.000784018	0.878811	357.516
501.0000	3.45137	-0.000794069	0.878856	357.383
500.5000	2.68332	-0.000849214	0.878907	357.225
500.0000	1.59031	-0.000912905	0.878639	357.015
499.5000	0.948267	-0.000940676	0.877574	356.743
499.0000	0.496548	-0.000986508	0.87603	356.348
498.5000	-0.215558	-0.00101277	0.874166	355.834
498.0000	-0.763256	-0.00104388	0.872191	355.219
497.5000	-1.26333	-0.00112299	0.87031	354.446
497.0000	-2.22603	-0.00116274	0.868778	353.615
496.5000	-2.99845	-0.00118019	0.867563	352.745
496.0000	-3.59555	-0.00123535	0.867448	352.051
495.5000	-4.75126	-0.00127268	0.867657	351.525
495.0000	-5.1882	-0.00133987	0.867179	351.149
494.5000	-5.97103	-0.00139229	0.865916	350.797
494.0000	-6.88774	-0.00143529	0.864321	350.456
493.5000	-7.62465	-0.00145663	0.862469	350.086
493.0000	-8.637	-0.00150482	0.860857	349.756
492.5000	-9.35349	-0.00153754	0.859149	349.417
492.0000	-10.3579	-0.0015927	0.85706	349.053
491.5000	-11.0977	-0.0016344	0.855016	348.741
491.0000	-11.9422	-0.00168824	0.85322	348.454
490.5000	-12.6682	-0.00170889	0.851338	348.197
490.0000	-13.6519	-0.00177873	0.849378	347.983
489.5000	-14.3279	-0.001819	0.847318	347.822
489.0000	-15.1955	-0.00184616	0.844969	347.659
488.5000	-16.0744	-0.00189486	0.84197	347.443
488.0000	-16.6852	-0.00194494	0.837749	347.025
487.5000	-17.3924	-0.00197824	0.833089	346.397
487.0000	-17.965	-0.00202319	0.829159	345.649
486.5000	-18.4482	-0.00205773	0.8251	344.765
486.0000	-19.1292	-0.00209693	0.82145	343.875
485.5000	-19.0302	-0.00213036	0.818977	342.994
485.0000	-19.6328	-0.00218171	0.817206	342.189
484.5000	-20.1828	-0.00222992	0.815083	341.531
484.0000	-20.7407	-0.00225266	0.812355	340.945
483.5000	-21.3474	-0.00228793	0.809811	340.467
483.0000	-21.6805	-0.00229162	0.806379	339.979
482.5000	-21.825	-0.00233912	0.802844	339.568
482.0000	-22.0636	-0.00235354	0.799112	339.195
481.5000	-22.3755	-0.00237054	0.795423	338.825
481.0000	-22.6335	-0.0024032	0.791973	338.487
480.5000	-22.5846	-0.00243687	0.788305	338.173
480.0000	-22.6047	-0.00241961	0.784347	337.87
479.5000	-22.9842	-0.00243314	0.780165	337.554
479.0000	-23.0018	-0.00246675	0.77437	337.102
478.5000	-23.3264	-0.0024919	0.767973	336.407
478.0000	-23.3892	-0.00250233	0.762689	335.476
477.5000	-23.3646	-0.00250449	0.76028	334.678
477.0000	-23.9894	-0.00251524	0.758246	334.101
476.5000	-23.7615	-0.0025108	0.753083	333.47
476.0000	-23.6408	-0.00251089	0.746424	332.628
475.5000	-23.6539	-0.00253529	0.739486	331.556
475.0000	-23.7509	-0.0025332	0.732519	330.276
474.5000	-23.7303	-0.00252229	0.726697	328.936
474.0000	-23.6753	-0.0025143	0.721239	327.46
473.5000	-23.7924	-0.00252709	0.715219	325.758
473.0000	-23.9714	-0.00253538	0.709223	323.906
472.5000	-24.1464	-0.00251688	0.704426	321.957
472.0000	-24.3274	-0.00251028	0.702027	320.327
471.5000	-23.9877	-0.00251624	0.700347	319.034
471.0000	-23.9689	-0.00250551	0.698826	318.264
470.5000	-23.8668	-0.00248135	0.697217	317.78
470.0000	-23.7564	-0.00247149	0.695103	317.618
469.5000	-23.6159	-0.00246825	0.690545	317.508
469.0000	-23.5071	-0.00247039	0.68176	317.021
468.5000	-23.4459	-0.00245605	0.672873	316.128
468.0000	-23.473	-0.00244802	0.666551	315.164
467.5000	-23.4492	-0.00244883	0.662102	314.353
467.0000	-23.1374	-0.00244033	0.65897	313.767
466.5000	-23.0017	-0.00243016	0.656323	313.392
466.0000	-22.6004	-0.00239886	0.652611	313.174
465.5000	-22.3169	-0.00238428	0.648591	313.172
465.0000	-21.8496	-0.00237622	0.644207	313.438
464.5000	-21.4708	-0.00234927	0.638341	313.856
464.0000	-21.4094	-0.00234433	0.630119	314.12
463.5000	-21.0241	-0.00231619	0.620384	314.035
463.0000	-20.8103	-0.00228824	0.61103	313.626
462.5000	-20.4013	-0.00227882	0.603264	313.057
462.0000	-20.1341	-0.00225446	0.596898	312.459
461.5000	-19.9827	-0.00223051	0.591224	311.952
461.0000	-19.4831	-0.00221414	0.585644	311.565
460.5000	-19.3182	-0.00219397	0.579746	311.299
460.0000	-18.9066	-0.00216096	0.573924	311.124
459.5000	-18.6535	-0.00213287	0.567666	310.998
459.0000	-18.3312	-0.00210004	0.560274	310.808
458.5000	-18.1012	-0.0020675	0.55231	310.521
458.0000	-17.8409	-0.00204487	0.544019	310.097
457.5000	-17.6027	-0.00201857	0.535425	309.44
457.0000	-17.2239	-0.00197759	0.527316	308.601
456.5000	-17.0016	-0.00193004	0.520868	307.8
456.0000	-16.5446	-0.00188575	0.514054	307.078
455.5000	-16.0719	-0.00184446	0.505257	306.191
455.0000	-15.8172	-0.00181696	0.497025	305.179
454.5000	-15.4165	-0.00178774	0.490842	304.23
454.0000	-15.0744	-0.00174157	0.485629	303.544
453.5000	-14.5373	-0.0017003	0.479229	303.048
453.0000	-14.1781	-0.00166658	0.472135	302.555
452.5000	-13.805	-0.00162842	0.465148	302.029
452.0000	-13.466	-0.00159038	0.458342	301.459
451.5000	-13.1868	-0.00155495	0.451268	300.869
451.0000	-12.8675	-0.00152622	0.44439	300.288
450.5000	-12.4668	-0.00148153	0.437285	299.671
450.0000	-12.0309	-0.00145743	0.431129	299.094
449.5000	-11.7512	-0.00144543	0.425779	298.627
449.0000	-11.2472	-0.00141411	0.420966	298.333
448.5000	-11.1754	-0.00138522	0.414705	298.051
448.0000	-10.8142	-0.00134935	0.407796	297.647
447.5000	-10.4625	-0.00132746	0.402292	297.245
447.0000	-10.281	-0.00130182	0.398582	297.073
446.5000	-10.0192	-0.0012674	0.394366	297.074
446.0000	-9.72432	-0.00123583	0.38717	296.927
445.5000	-9.62297	-0.00121048	0.379498	296.465
445.0000	-9.5144	-0.00119049	0.373023	295.845
444.5000	-9.37834	-0.00116593	0.367069	295.196
444.0000	-9.05032	-0.00113111	0.361357	294.544
443.5000	-8.80865	-0.00110581	0.355587	293.82
443.0000	-8.59014	-0.0010793	0.350866	293.18
442.5000	-8.46413	-0.00104872	0.346342	292.567
442.0000	-8.1448	-0.00103459	0.342243	292.067
441.5000	-7.89108	-0.00101001	0.337406	291.529
441.0000	-7.91752	-0.000978878	0.332837	291.034
440.5000	-7.90269	-0.000956001	0.328513	290.565
440.0000	-7.6543	-0.000935782	0.323817	290.066
439.5000	-7.28914	-0.000919156	0.318918	289.556
439.0000	-7.16487	-0.00088847	0.313843	289.036
438.5000	-6.93337	-0.000856989	0.308428	288.506
438.0000	-6.83896	-0.000821756	0.302938	287.989
437.5000	-6.45686	-0.000794956	0.297697	287.486
437.0000	-5.96246	-0.000778138	0.292187	286.978
436.5000	-5.72206	-0.000749579	0.287852	286.544
436.0000	-5.63345	-0.000720944	0.283915	286.163
435.5000	-5.46064	-0.000704597	0.279502	285.803
435.0000	-5.42824	-0.000679602	0.274931	285.467
434.5000	-5.16198	-0.000655252	0.270213	285.119
434.0000	-4.93687	-0.000643295	0.265422	284.732
433.5000	-4.9464	-0.000623103	0.260993	284.348
433.0000	-4.61521	-0.000591573	0.256974	283.951
432.5000	-4.47526	-0.000573208	0.25305	283.558
432.0000	-4.09335	-0.000552177	0.248834	283.143
431.5000	-4.03611	-0.000542369	0.244663	282.722
431.0000	-3.69556	-0.000520661	0.240535	282.292
430.5000	-3.70253	-0.00047996	0.236608	281.869
430.0000	-3.47563	-0.000471367	0.233172	281.477
429.5000	-3.33949	-0.000461685	0.229448	281.064
429.0000	-3.18378	-0.000436754	0.225917	280.663
428.5000	-3.12803	-0.000412758	0.222183	280.252
428.0000	-3.00622	-0.000393762	0.218069	279.832
427.5000	-2.86796	-0.000385019	0.214602	279.451
427.0000	-2.76409	-0.000367468	0.211418	279.084
426.5000	-2.49588	-0.000345656	0.208117	278.699
426.0000	-2.48074	-0.000330295	0.204795	278.293
425.5000	-2.30716	-0.000304292	0.201719	277.869
425.0000	-2.24192	-0.00029548	0.198434	277.419
424.5000	-2.12242	-0.000293749	0.195071	276.929
424.0000	-1.91381	-0.000275579	0.192114	276.458
423.5000	-1.82397	-0.000256234	0.189902	276.058
423.0000	-1.83589	-0.000239058	0.187607	275.715
422.5000	-1.82045	-0.000237494	0.185189	275.418
422.0000	-1.66256	-0.000232829	0.182429	275.121
421.5000	-1.50335	-0.000218989	0.179819	274.846
421.0000	-1.3505	-0.00021897	0.177414	274.584
420.5000	-1.35392	-0.00020603	0.174964	274.323
420.0000	-1.26606	-0.000196863	0.172635	274.057
419.5000	-1.16808	-0.000195899	0.170321	273.775
419.0000	-1.13576	-0.00020344	0.168199	273.52
418.5000	-0.991609	-0.00020154	0.165961	273.29
418.0000	-0.927344	-0.000194355	0.164092	273.071
417.5000	-0.881632	-0.000162269	0.162024	272.854
417.0000	-0.856618	-0.000138229	0.160468	272.667
416.5000	-0.757204	-0.000131544	0.159122	272.535
416.0000	-0.874129	-0.000120782	0.157587	272.45
415.5000	-0.860866	-0.000113048	0.155643	272.343
415.0000	-0.794477	-9.22105E-005	0.153589	272.189
414.5000	-0.562338	-8.67324E-005	0.151777	271.985
414.0000	-0.491526	-7.07183E-005	0.150462	271.782
413.5000	-0.651586	-5.5529E-005	0.149381	271.582
413.0000	-0.599057	-5.03603E-005	0.148362	271.401
412.5000	-0.696498	-4.88246E-005	0.147343	271.243
412.0000	-0.52536	-3.88427E-005	0.146373	271.099
411.5000	-0.356222	-3.20094E-005	0.145242	270.964
411.0000	-0.284534	-1.84016E-005	0.144327	270.852
410.5000	-0.205254	-3.24183E-006	0.143435	270.735
410.0000	-0.156155	6.44747E-007	0.142747	270.636
409.5000	-0.237546	4.45017E-006	0.142168	270.558
409.0000	-0.258485	-4.92447E-006	0.141511	270.492
408.5000	-0.142172	1.98387E-006	0.140738	270.443
408.0000	-0.0957239	1.63969E-005	0.139768	270.391
407.5000	0.139905	2.36401E-005	0.138778	270.33
407.0000	0.163457	1.53304E-005	0.137825	270.247
406.5000	0.0838539	7.29344E-007	0.137067	270.166
406.0000	0.177366	1.70747E-005	0.136361	270.085
405.5000	0.13686	2.18201E-005	0.135437	269.991
405.0000	0.210687	2.14345E-005	0.134584	269.881
404.5000	0.183834	3.14387E-005	0.133862	269.762
404.0000	0.189004	3.85206E-005	0.133497	269.62
403.5000	0.189789	4.86261E-005	0.133093	269.451
403.0000	0.100634	4.93016E-005	0.13302	269.268
402.5000	0.239122	6.01598E-005	0.132495	269.06
402.0000	0.167014	6.7257E-005	0.132609	268.881
401.5000	0.230632	6.69113E-005	0.132808	268.678
401.0000	0.224023	6.36243E-005	0.132835	268.5
400.5000	0.259159	6.4114E-005	0.132855	268.333
400.0000	0.251402	6.18555E-005	0.132851	268.196
399.5000	0.30786	5.40344E-005	0.133399	268.072
399.0000	0.339938	6.35957E-005	0.133979	267.985
398.5000	0.313309	7.65612E-005	0.134257	267.904
398.0000	0.307562	7.53408E-005	0.134533	267.848
397.5000	0.310669	7.22846E-005	0.134842	267.821
397.0000	0.361787	7.16173E-005	0.135371	267.809
396.5000	0.35633	6.78739E-005	0.135786	267.835
396.0000	0.388482	5.67248E-005	0.136252	267.883
395.5000	0.250637	4.56299E-005	0.136293	267.951
395.0000	0.152187	4.11529E-005	0.136511	268.05
394.5000	0.1706	3.40104E-005	0.137038	268.191
394.0000	0.211831	3.19949E-005	0.137455	268.344
393.5000	0.187945	3.59342E-005	0.13747	268.505
393.0000	0.200368	3.6414E-005	0.13742	268.686
392.5000	0.354108	5.64196E-005	0.137695	268.871
392.0000	0.402115	4.39063E-005	0.138032	269.027
391.5000	0.327735	5.27356E-005	0.138566	269.165
391.0000	0.350876	5.29483E-005	0.138905	269.288
390.5000	0.226148	4.19526E-005	0.139142	269.413
390.0000	0.217558	5.38142E-005	0.139463	269.535
389.5000	0.34188	6.18092E-005	0.140127	269.649
389.0000	0.305098	5.49453E-005	0.14086	269.748
388.5000	0.360079	5.28239E-005	0.141222	269.83
388.0000	0.504562	6.31116E-005	0.141591	269.919
387.5000	0.569064	7.65398E-005	0.142295	270.006
387.0000	0.515721	8.53476E-005	0.143505	270.093
386.5000	0.508928	7.61498E-005	0.144248	270.15
386.0000	0.400529	7.79378E-005	0.145259	270.214
385.5000	0.313466	6.39771E-005	0.146287	270.275
385.0000	0.322983	6.4365E-005	0.147285	270.328
384.5000	0.281444	4.86311E-005	0.148351	270.384
384.0000	0.126535	5.53899E-005	0.149409	270.429
383.5000	0.319233	6.62527E-005	0.150411	270.491
383.0000	0.402669	5.54562E-005	0.151221	270.549
382.5000	0.467684	5.3052E-005	0.152103	270.607
382.0000	0.574424	6.39045E-005	0.153285	270.652
381.5000	0.564743	4.09943E-005	0.154775	270.713
381.0000	0.365208	6.09676E-005	0.156036	270.783
380.5000	0.525024	5.29667E-005	0.157032	270.846
380.0000	0.370204	4.93003E-005	0.158525	270.931
379.5000	0.257498	4.97228E-005	0.159769	270.991
379.0000	0.261543	4.96666E-005	0.160676	271.054
378.5000	0.276695	4.37488E-005	0.161165	271.108
378.0000	0.315501	4.81285E-005	0.161963	271.183
377.5000	0.455149	3.5009E-005	0.16276	271.244
377.0000	0.69206	4.7772E-005	0.16345	271.297
376.5000	0.719816	5.16585E-005	0.164389	271.348
376.0000	0.72395	4.17686E-005	0.165318	271.392
375.5000	0.792437	3.5936E-005	0.165847	271.417
375.0000	0.878686	3.22759E-005	0.166509	271.446
374.5000	0.748084	3.13327E-005	0.167096	271.461
374.0000	0.84748	2.74393E-005	0.167758	271.478
373.5000	0.800222	2.62322E-005	0.168294	271.493
373.0000	0.716745	9.93537E-006	0.168693	271.516
372.5000	0.753709	-1.01816E-006	0.169073	271.529
372.0000	0.802419	-4.35808E-006	0.169497	271.541
371.5000	0.968906	-7.545E-006	0.169765	271.548
371.0000	0.967981	-2.92891E-005	0.170354	271.567
370.5000	0.965479	-3.06877E-005	0.171166	271.601
370.0000	0.938182	-2.57971E-005	0.171774	271.631
369.5000	0.916358	-4.02397E-005	0.172426	271.671
369.0000	0.937004	-3.23344E-005	0.173028	271.708
368.5000	0.723729	-4.12779E-005	0.173822	271.757
368.0000	0.701466	-5.10476E-005	0.174427	271.814
367.5000	0.656407	-4.02082E-005	0.175289	271.888
367.0000	0.763345	-5.32655E-005	0.176351	271.965
366.5000	0.691451	-6.46107E-005	0.177193	272.05
366.0000	0.491096	-7.97683E-005	0.178108	272.153
365.5000	0.447486	-7.90903E-005	0.178717	272.231
365.0000	0.676328	-7.05667E-005	0.179135	272.304
364.5000	0.605515	-7.86397E-005	0.179843	272.382
364.0000	0.615959	-8.55243E-005	0.18056	272.478
363.5000	0.659752	-7.94424E-005	0.181699	272.583
363.0000	0.55105	-8.79149E-005	0.182696	272.68
362.5000	0.528245	-9.60953E-005	0.183493	272.773
362.0000	0.674457	-0.000105401	0.18426	272.865
361.5000	0.666856	-9.10484E-005	0.185127	272.951
361.0000	0.600276	-9.90944E-005	0.185997	273.039
360.5000	0.489641	-0.000104473	0.18678	273.139
360.0000	0.628231	-9.84912E-005	0.187502	273.224
359.5000	0.662461	-0.000100456	0.188226	273.317
359.0000	0.605606	-0.000112524	0.188469	273.389
358.5000	0.610288	-0.000106351	0.188651	273.465
358.0000	0.685488	-0.000105695	0.18886	273.54
357.5000	0.724022	-0.000106525	0.189239	273.631
357.0000	0.799523	-0.00011373	0.189995	273.733
356.5000	0.826384	-0.00011261	0.190806	273.812
356.0000	0.886763	-0.000117766	0.19122	273.888
355.5000	0.899257	-0.000132894	0.191439	273.949
355.0000	1.02286	-0.000145794	0.191565	274.012
354.5000	1.06425	-0.000129992	0.191804	274.086
354.0000	1.07269	-0.000142758	0.19236	274.179
353.5000	1.02197	-0.000151196	0.192913	274.27
353.0000	1.00996	-0.000161517	0.19333	274.358
352.5000	1.12174	-0.000169484	0.193836	274.451
352.0000	1.38024	-0.000180403	0.194154	274.526
351.5000	1.35126	-0.000191365	0.19475	274.623
351.0000	1.4548	-0.000205277	0.195457	274.7
350.5000	1.53369	-0.000223308	0.196394	274.787
350.0000	1.47198	-0.000227023	0.197549	274.889
349.5000	1.51305	-0.000235385	0.198653	274.98
349.0000	1.34393	-0.000240787	0.199763	275.064
348.5000	1.30825	-0.000249014	0.200895	275.143
348.0000	1.23226	-0.000265627	0.201858	275.229
347.5000	1.12957	-0.000274783	0.203172	275.321
347.0000	1.08717	-0.000267983	0.204594	275.419
346.5000	0.873599	-0.0002833	0.205707	275.508
346.0000	0.943085	-0.00029465	0.206735	275.595
345.5000	1.05159	-0.000296654	0.207807	275.672
345.0000	1.23583	-0.000306404	0.209023	275.758
344.5000	1.36549	-0.000312676	0.210279	275.847
344.0000	1.3219	-0.000317875	0.211672	275.932
343.5000	1.12896	-0.000340874	0.212831	276.019
343.0000	1.15519	-0.000353794	0.213873	276.105
342.5000	1.15655	-0.000355967	0.214705	276.186
342.0000	1.11484	-0.000361459	0.215438	276.261
341.5000	1.21017	-0.000363372	0.216275	276.337
341.0000	1.39797	-0.000357794	0.217438	276.423
340.5000	1.64873	-0.000380983	0.21832	276.509
340.0000	1.58563	-0.000395087	0.219336	276.609
339.5000	1.67964	-0.000401469	0.220091	276.71
339.0000	1.81714	-0.000416408	0.221088	276.807
338.5000	2.01655	-0.000428878	0.222166	276.905
338.0000	1.94869	-0.000440737	0.223193	277.004
337.5000	2.12461	-0.000446579	0.224188	277.107
337.0000	2.00984	-0.000454786	0.22518	277.22
336.5000	2.02004	-0.000467522	0.226261	277.321
336.0000	2.12993	-0.000478123	0.227287	277.43
335.5000	2.28934	-0.000493067	0.228286	277.534
335.0000	2.32131	-0.000502028	0.229257	277.637
334.5000	2.41675	-0.000522255	0.230168	277.743
334.0000	2.53113	-0.000551754	0.231409	277.868
333.5000	2.55628	-0.000566515	0.233181	278.008
333.0000	2.42351	-0.000591056	0.234599	278.148
332.5000	2.25003	-0.000620813	0.235437	278.263
332.0000	2.27894	-0.000629442	0.236451	278.386
331.5000	2.2627	-0.000653828	0.237654	278.507
331.0000	2.19204	-0.000658832	0.239085	278.645
330.5000	2.10636	-0.0006821	0.240205	278.776
330.0000	2.0322	-0.000699454	0.241526	278.915
329.5000	2.01073	-0.000721854	0.242831	279.054
329.0000	2.04432	-0.000759818	0.244047	279.196
328.5000	2.18674	-0.000777301	0.245272	279.326
328.0000	2.15048	-0.000802228	0.246274	279.446
327.5000	2.06888	-0.000830517	0.247465	279.565
327.0000	1.98349	-0.000841324	0.24893	279.686
326.5000	2.05969	-0.00085697	0.250679	279.829
326.0000	1.99524	-0.000871787	0.252603	279.985
325.5000	1.91501	-0.000887812	0.254328	280.144
325.0000	1.85488	-0.000925089	0.255591	280.292
324.5000	2.08052	-0.000955212	0.257096	280.448
324.0000	2.20439	-0.000980655	0.259005	280.624
323.5000	2.11397	-0.00100205	0.261003	280.798
323.0000	2.0559	-0.00101666	0.262849	280.982
322.5000	2.11923	-0.00104637	0.264552	281.158
322.0000	2.05795	-0.00105739	0.266171	281.338
321.5000	2.16309	-0.00107821	0.268063	281.521
321.0000	2.32091	-0.00109725	0.270081	281.713
320.5000	2.3181	-0.00111421	0.272089	281.898
320.0000	2.12483	-0.00112932	0.273924	282.082
319.5000	2.14027	-0.00114835	0.275803	282.27
319.0000	2.0275	-0.00115574	0.277776	282.49
318.5000	1.93909	-0.00118816	0.279722	282.717
318.0000	1.83139	-0.00121101	0.28145	282.92
317.5000	1.88708	-0.00122503	0.283043	283.091
317.0000	1.8888	-0.00125089	0.284898	283.259
316.5000	1.83278	-0.00126057	0.286978	283.434
316.0000	1.72148	-0.00128739	0.289344	283.638
315.5000	1.69631	-0.00129786	0.291198	283.828
315.0000	1.79431	-0.00130654	0.293133	284.037
314.5000	1.79825	-0.00133367	0.294856	284.228
314.0000	1.91554	-0.00133926	0.296989	284.446
313.5000	1.89779	-0.00135411	0.299039	284.653
313.0000	1.95314	-0.00136759	0.301216	284.883
312.5000	1.87186	-0.00139185	0.303206	285.106
312.0000	1.75725	-0.00141867	0.305596	285.348
311.5000	1.94034	-0.00142635	0.307808	285.586
311.0000	2.03342	-0.00143933	0.310491	285.845
310.5000	2.06124	-0.00145912	0.312832	286.113
310.0000	1.98729	-0.00146733	0.315379	286.379
309.5000	2.0928	-0.00148518	0.318264	286.674
309.0000	2.19076	-0.00150099	0.321448	287.003
308.5000	2.15752	-0.0015041	0.324434	287.344
308.0000	2.28125	-0.00151045	0.327246	287.663
307.5000	2.08142	-0.00152665	0.330461	288.015
307.0000	2.24008	-0.00154004	0.333792	288.357
306.5000	2.16929	-0.00155505	0.337551	288.741
306.0000	2.2749	-0.00157211	0.341415	289.121
305.5000	2.23569	-0.00160946	0.34526	289.528
305.0000	2.38913	-0.00162254	0.349184	289.932
304.5000	2.1783	-0.00163682	0.353945	290.4
304.0000	2.30454	-0.00164538	0.358978	290.887
303.5000	2.19428	-0.00166251	0.363819	291.357
303.0000	1.92464	-0.00168197	0.36908	291.891
302.5000	1.76223	-0.001709	0.374409	292.438
302.0000	1.71023	-0.00174003	0.38022	293.012
301.5000	1.73627	-0.00176283	0.386137	293.593
301.0000	1.9175	-0.00178819	0.392049	294.196
300.5000	1.75361	-0.00181573	0.397432	294.748
300.0000	1.87543	-0.00185506	0.404125	295.402
299.5000	1.88922	-0.00188207	0.410394	296.027
299.0000	2.19482	-0.00187835	0.416614	296.662
298.5000	2.22176	-0.00188551	0.422956	297.323
298.0000	2.36919	-0.00190569	0.429062	297.95
297.5000	2.24354	-0.00191505	0.435424	298.597
297.0000	2.19549	-0.0019187	0.441415	299.164
296.5000	2.21523	-0.00191554	0.447082	299.72
296.0000	2.4513	-0.00191061	0.452608	300.268
295.5000	2.51272	-0.00191317	0.458052	300.781
295.0000	2.75057	-0.00189134	0.463115	301.241
294.5000	2.94133	-0.00188542	0.468255	301.721
294.0000	2.98722	-0.00185468	0.473242	302.229
293.5000	3.02825	-0.00184751	0.477079	302.64
293.0000	2.95563	-0.00180543	0.481316	303.083
292.5000	2.9588	-0.00178623	0.485347	303.527
292.0000	3.03504	-0.00173459	0.488871	303.934
291.5000	3.10713	-0.00169153	0.492502	304.339
291.0000	3.19815	-0.00166391	0.495909	304.72
290.5000	3.05356	-0.00164796	0.499655	305.128
290.0000	3.105	-0.00159865	0.503198	305.497
289.5000	3.06308	-0.00156022	0.506304	305.852
289.0000	3.19459	-0.00151765	0.509241	306.197
288.5000	2.9631	-0.00149526	0.512492	306.586
288.0000	2.89102	-0.00145714	0.515628	306.967
287.5000	2.83255	-0.00141603	0.51894	307.377
287.0000	2.61165	-0.00136814	0.522219	307.825
286.5000	2.48161	-0.00131886	0.525175	308.262
286.0000	2.4529	-0.00126413	0.528075	308.657
285.5000	2.4764	-0.00121926	0.531347	309.038
285.0000	2.5166	-0.00115929	0.534905	309.453
284.5000	2.27625	-0.0011232	0.538199	309.843
284.0000	2.11353	-0.00108502	0.54178	310.262
283.5000	1.88286	-0.00104312	0.545648	310.697
283.0000	1.58212	-0.00100999	0.549289	311.113
282.5000	1.27632	-0.000949142	0.553355	311.571
282.0000	0.95237	-0.000911829	0.557304	312.05
281.5000	0.716542	-0.000884599	0.561201	312.527
281.0000	0.682617	-0.000848499	0.565469	313.021
280.5000	0.700329	-0.000791828	0.570026	313.57
280.0000	0.571632	-0.000727718	0.574867	314.144
279.5000	0.176673	-0.000668628	0.579958	314.755
279.0000	-0.0688375	-0.000635008	0.584833	315.353
278.5000	-0.227209	-0.000595547	0.590463	316.023
278.0000	-0.597889	-0.000552298	0.597155	316.763
277.5000	-0.746154	-0.000514357	0.603561	317.472
277.0000	-1.03515	-0.000471118	0.610366	318.254
276.5000	-1.26935	-0.000401018	0.617517	319.087
276.0000	-1.37518	-0.000357143	0.624341	319.874
275.5000	-1.65822	-0.000306245	0.632654	320.798
275.0000	-1.75143	-0.000264156	0.641378	321.772
274.5000	-1.78024	-0.00020191	0.650456	322.807
274.0000	-1.80948	-0.000161764	0.660212	323.949
273.5000	-2.06281	-0.00011311	0.669921	325.047
273.0000	-2.3606	-5.76593E-005	0.68081	326.272
272.5000	-2.84961	-1.31422E-005	0.692216	327.566
272.0000	-3.25609	2.66666E-005	0.703971	328.918
271.5000	-3.52723	7.31309E-005	0.717119	330.43
271.0000	-3.3209	0.000110316	0.730581	331.945
270.5000	-3.16004	0.000165574	0.744985	333.549
270.0000	-3.34561	0.000200089	0.759735	335.233
269.5000	-3.53817	0.000248605	0.775074	337.023
269.0000	-3.87251	0.000270952	0.790425	338.805
268.5000	-4.01074	0.000320549	0.807666	340.796
268.0000	-3.82756	0.00033978	0.825782	342.883
267.5000	-3.78099	0.000392975	0.844619	345.068
267.0000	-4.01704	0.000459196	0.865008	347.479
266.5000	-3.92959	0.000512613	0.886049	350
266.0000	-3.81204	0.000546712	0.906236	352.376
265.5000	-3.75143	0.000601981	0.92841	354.967
265.0000	-3.23788	0.000638032	0.951946	357.778
264.5000	-2.51567	0.00067317	0.974496	360.516
264.0000	-1.48514	0.000735595	0.997395	363.313
263.5000	-0.579659	0.000758238	1.02204	366.309
263.0000	-0.288413	0.000776936	1.04454	369.065
262.5000	0.262321	0.000820294	1.06924	372.154
262.0000	0.670594	0.000824811	1.09273	375.156
261.5000	1.68332	0.000863232	1.11675	378.21
261.0000	2.47704	0.000892858	1.14027	381.165
260.5000	3.02787	0.000926922	1.1653	384.348
260.0000	3.88891	0.000954637	1.19054	387.599
259.5000	5.01509	0.000995383	1.21615	390.932
259.0000	5.53313	0.000997375	1.24187	394.333
258.5000	6.70376	0.000989074	1.2686	397.842
258.0000	7.79703	0.000987536	1.29613	401.475
257.5000	8.90838	0.000983474	1.323	405.039
257.0000	10.0977	0.000950127	1.35214	408.929
256.5000	11.5907	0.000920072	1.38094	412.786
256.0000	12.6823	0.000908954	1.41262	417.029
255.5000	12.9308	0.000882222	1.44569	421.468
255.0000	13.821	0.000873515	1.48009	426.129
254.5000	14.2947	0.000815951	1.51397	430.753
254.0000	16.0857	0.00082652	1.54934	435.605
253.5000	18.1017	0.000840234	1.59021	441.19
253.0000	19.6265	0.000836359	1.62825	446.462
252.5000	22.6546	0.000787412	1.68627	454.642
252.0000	24.7044	0.000733621	1.73616	461.738
251.5000	26.2771	0.000735181	1.78134	468.208
251.0000	27.3742	0.000604854	1.82823	474.941
250.5000	29.0992	0.000531575	1.87623	481.936
250.0000	30.2795	0.000508101	1.92307	488.858
249.5000	31.0154	0.000346028	1.97124	496.059
249.0000	32.2005	0.000231239	2.02363	503.97
248.5000	32.6847	0.000185915	2.07504	511.792
248.0000	32.8645	0.000285231	2.13066	520.369
247.5000	33.3885	0.000191266	2.18498	528.879
247.0000	32.7557	0.000117373	2.2438	538.23
246.5000	34.8843	9.93326E-005	2.30485	548.04
246.0000	34.9612	6.24719E-005	2.36791	558.294
245.5000	34.4304	-4.3838E-005	2.4357	569.559
245.0000	31.063	-0.000103869	2.50592	581.417
244.5000	28.9844	-8.62711E-005	2.57875	593.911
244.0000	28.2527	-0.000126639	2.65384	607.052
243.5000	26.6369	-0.000363841	2.72756	620.217
243.0000	24.2889	-0.000351196	2.8032	634.016
242.5000	25.7508	-0.000267879	2.88865	649.942
242.0000	26.7193	-0.000227278	2.96395	664.27
241.5000	25.7507	-8.51262E-005	3.04844	680.684
241.0000	23.9975	-0.000169715	3.12562	696.002
240.5000	22.2128	-0.000231498	3.21097	713.4
240.0000	20.5277	-0.000365738	3.28836	729.527
239.5000	19.3664	-0.000389939	3.37674	748.378
239.0000	16.5985	-0.000256222	3.45178	764.731
238.5000	16.7811	-0.0002989	3.52833	781.813
238.0000	15.5227	-0.000370177	3.60548	799.52
237.5000	15.4185	-0.000242633	3.67171	815.127
237.0000	14.6423	-0.000237064	3.73754	831.02
236.5000	14.0904	-0.000397364	3.79903	846.241
236.0000	13.8342	-0.000174925	3.85278	859.875
235.5000	10.7274	-8.38864E-005	3.90908	874.619
235.0000	9.83292	0.000183697	3.94373	883.96
234.5000	10.0093	0.000333689	3.97748	893.264
234.0000	8.67531	0.000207097	4.00963	902.361
233.5000	6.76679	-5.7924E-005	4.04132	911.585
233.0000	2.95829	-2.40904E-005	4.06959	920.177
232.5000	2.08289	0.000155603	4.0917	927.347
232.0000	2.42849	0.000382483	4.11154	934.379
231.5000	2.69942	0.000281902	4.12369	939.24
231.0000	-2.27454	-3.92674E-006	4.13408	943.939
230.5000	-4.76297	-7.69896E-005	4.14149	948.036
230.0000	-5.56667	-0.000118598	4.14733	951.768
229.5000	-8.72635	-0.000251247	4.15605	956.379
229.0000	-8.89216	-0.000265261	4.16814	961.932
228.5000	-11.853	-0.000618196	4.18128	967.773
228.0000	-13.9589	-0.000268592	4.19171	972.859
227.5000	-11.3065	-0.00039003	4.19888	977.411
227.0000	-11.5696	-0.000508857	4.20273	981.16
226.5000	-10.4684	-0.000618895	4.20345	984.272
226.0000	-9.50345	-0.000876492	4.20134	986.461
225.5000	-8.52977	-0.000520088	4.19628	988.102
225.0000	-7.78215	-0.000110538	4.18915	989.37
224.5000	-5.24136	-0.000381693	4.18124	990.513
224.0000	-5.35911	-0.000195377	4.173	991.56
223.5000	-3.72706	-3.38862E-005	4.16481	992.546
223.0000	-5.20298	-8.06639E-006	4.15604	993.341
222.5000	0.388958	-5.09247E-005	4.14358	993.908
222.0000	-1.41675	-0.000201218	4.13033	993.964
221.5000	0.626507	-0.000123254	4.11101	992.62
221.0000	-0.361236	0.000188329	4.08797	989.782
220.5000	2.06273	0.000203865	4.06087	985.927
220.0000	3.6962	0.000130841	4.03239	981.911

##### Extended Information
[Comments]
Sample name	JS187+JS190_5E-5_H2O_80-20_100EQDT+72H
Comment
User
Division
Company	Labo systeme complexes hors equilibre

[Detailed Information]
Creation date	1/26/2024 11:01 AM

Data array type	Linear data array * 4
Horizontal axis	Wavelength [nm]
Vertical axis(1)	CD [mdeg]
Vertical axis(2)	LD [dOD]
Vertical axis(3)	Abs
Vertical axis(4)	HT [V]
Start	700 nm
End	220 nm
Data interval	0.5 nm
Data points	961     

[Measurement Information]
Instrument name	CD Jasco
Model name	J-1500
Serial No.	A005261638

Detector	PM-539
Detector S/N	A0052PM539
  Lock-in amp.	X mode
  HT volt	Auto

Detector	EXPML-535
Detector S/N	A0001
  Lock-in amp.	X mode
  HT volt	Auto

Measurement date	1/26/2024 11:01 AM

Overload detect	1
Photometric mode	CD, LD, Abs, HT
Measure range	700 - 220 nm
Data pitch	0.5 nm
CD scale	200 mdeg/1.0 dOD
FL scale	200 mdeg/1.0 dOD
D.I.T.	1 sec
Bandwidth	1.00 nm
Start mode	Immediately
Scanning speed	500 nm/min
Baseline correction	Baseline
Shutter control	Auto


