TITLE	JS187+JS190_5E-5_H2O_40-60_100EQDT+72H
DATA TYPE	
ORIGIN	JASCO
OWNER	
DATE	24/01/26
TIME	11:04:14
SPECTROMETER/DATA SYSTEM	
LOCALE	1033
RESOLUTION	
DELTAX	-0.5
XUNITS	NANOMETERS
YUNITS	CD [mdeg]
Y2UNITS	LD [dOD]
Y3UNITS	ABSORBANCE
Y4UNITS	HT [V]
FIRSTX	  700.0000
LASTX	  220.0000
NPOINTS	     961
FIRSTY	     2.03907
MAXY	    10.73756
MINY	   -13.97364
XYDATA
700.0000	2.03907	-0.00115606	-0.00983376	303.406
699.5000	1.92855	-0.00115584	-0.0103908	303.148
699.0000	1.92774	-0.00115454	-0.0110307	302.838
698.5000	2.02725	-0.00114852	-0.0112699	302.481
698.0000	2.25763	-0.00114378	-0.0117535	302.101
697.5000	2.12848	-0.00113927	-0.0126476	301.708
697.0000	2.09275	-0.00111159	-0.0136816	301.284
696.5000	2.15333	-0.00110547	-0.0141466	300.831
696.0000	2.05017	-0.00109602	-0.0139373	300.324
695.5000	2.13138	-0.00110624	-0.013858	299.807
695.0000	2.08817	-0.00112707	-0.0133609	299.33
694.5000	2.10379	-0.00112274	-0.0132539	298.838
694.0000	2.27188	-0.00110541	-0.0121433	298.364
693.5000	2.29073	-0.00109793	-0.0107254	297.923
693.0000	2.34826	-0.00108384	-0.00875619	297.533
692.5000	2.19304	-0.00109961	-0.00675041	297.17
692.0000	2.10314	-0.00109459	-0.00480554	296.841
691.5000	2.11263	-0.00111149	-0.0025789	296.549
691.0000	2.12735	-0.00110391	-0.000416157	296.269
690.5000	2.12025	-0.0010844	0.00111647	296.035
690.0000	2.09433	-0.00109478	0.00232091	295.818
689.5000	1.80947	-0.0011033	0.00345728	295.617
689.0000	1.73026	-0.00110905	0.00509364	295.446
688.5000	1.75182	-0.00111118	0.00640863	295.326
688.0000	1.48036	-0.00110069	0.00849167	295.304
687.5000	1.32105	-0.00109167	0.0110853	295.378
687.0000	1.30856	-0.0010762	0.0135176	295.515
686.5000	0.961839	-0.00108587	0.0156498	295.713
686.0000	0.910618	-0.00110821	0.0166647	295.94
685.5000	1.0106	-0.00111372	0.0168307	296.189
685.0000	0.775825	-0.00112719	0.016667	296.443
684.5000	0.587543	-0.00113028	0.0159064	296.684
684.0000	0.854438	-0.00112704	0.0146221	296.913
683.5000	0.857333	-0.00111427	0.0138154	297.149
683.0000	1.00626	-0.0011019	0.0128541	297.384
682.5000	0.82846	-0.00112187	0.0123992	297.621
682.0000	1.02669	-0.00114247	0.0118319	297.886
681.5000	1.25918	-0.00114155	0.0117398	298.147
681.0000	1.40971	-0.00113559	0.0118183	298.438
680.5000	1.69554	-0.00112625	0.012004	298.715
680.0000	1.84833	-0.00112851	0.011177	298.965
679.5000	1.84273	-0.00115337	0.00966596	299.145
679.0000	1.89357	-0.00114056	0.00707788	299.268
678.5000	1.90763	-0.00113789	0.00533841	299.338
678.0000	2.0205	-0.00112165	0.00366947	299.374
677.5000	2.17839	-0.00109738	0.00255076	299.372
677.0000	2.18492	-0.001079	0.00214155	299.364
676.5000	2.37266	-0.00107824	0.00236274	299.346
676.0000	2.2358	-0.00105874	0.00252619	299.318
675.5000	1.96326	-0.00106698	0.0028877	299.309
675.0000	1.84498	-0.00106369	0.00336899	299.297
674.5000	1.81325	-0.00105583	0.00407513	299.276
674.0000	1.64622	-0.00102601	0.00500606	299.278
673.5000	1.4563	-0.00102752	0.00597493	299.284
673.0000	1.18043	-0.0010217	0.0060112	299.297
672.5000	0.938198	-0.0010317	0.00604112	299.319
672.0000	0.734141	-0.00102854	0.00641436	299.35
671.5000	0.743123	-0.00100934	0.00723188	299.381
671.0000	0.619078	-0.00100577	0.00816159	299.425
670.5000	0.792702	-0.000990163	0.00932014	299.474
670.0000	0.654153	-0.000960001	0.0102784	299.526
669.5000	0.99492	-0.000947871	0.0107184	299.583
669.0000	0.992034	-0.000950402	0.0112572	299.647
668.5000	1.18589	-0.000972101	0.0116726	299.704
668.0000	1.35027	-0.000984792	0.0120597	299.79
667.5000	1.2239	-0.000982342	0.0122092	299.87
667.0000	1.11213	-0.000987666	0.0122662	299.968
666.5000	1.1319	-0.000993708	0.0123692	300.071
666.0000	1.12868	-0.000990254	0.0117483	300.179
665.5000	1.27148	-0.00100362	0.0115476	300.288
665.0000	1.43044	-0.000992526	0.0122115	300.403
664.5000	1.67123	-0.000993322	0.013078	300.508
664.0000	1.59608	-0.00100684	0.013189	300.607
663.5000	1.68918	-0.00102348	0.0123565	300.708
663.0000	1.94708	-0.00103701	0.0121528	300.79
662.5000	1.86949	-0.00102241	0.0118843	300.87
662.0000	1.93815	-0.00105667	0.0115494	300.939
661.5000	1.583	-0.00108022	0.0115932	300.982
661.0000	1.52853	-0.00107911	0.0112997	301.019
660.5000	1.41013	-0.00106237	0.0108659	301.05
660.0000	1.39632	-0.0010569	0.0106641	301.07
659.5000	1.60519	-0.00104769	0.00985257	301.063
659.0000	1.7075	-0.00105531	0.00922186	301.037
658.5000	1.67939	-0.00106162	0.00893141	301.009
658.0000	1.56322	-0.00106477	0.00894054	300.959
657.5000	1.73306	-0.0010558	0.0083104	300.883
657.0000	1.5484	-0.00106355	0.00868996	300.799
656.5000	1.69289	-0.00104332	0.00793837	300.692
656.0000	1.91433	-0.00101804	0.00719319	300.561
655.5000	2.0497	-0.0010196	0.00783055	300.411
655.0000	1.89643	-0.00100814	0.00768872	300.238
654.5000	2.01945	-0.00101614	0.00699144	300.061
654.0000	1.9953	-0.00102909	0.00681521	299.857
653.5000	1.96964	-0.00101858	0.00740408	299.667
653.0000	2.15846	-0.00101954	0.00833655	299.49
652.5000	2.28059	-0.000988774	0.0090317	299.317
652.0000	2.50638	-0.000994171	0.0100731	299.185
651.5000	2.25848	-0.000989308	0.0114494	299.068
651.0000	2.04983	-0.000985809	0.0134042	298.989
650.5000	2.02472	-0.000960225	0.0146634	298.941
650.0000	2.29261	-0.000961327	0.0162115	298.905
649.5000	2.31718	-0.00094398	0.0173493	298.905
649.0000	2.43009	-0.000938557	0.0186889	298.923
648.5000	2.64997	-0.000959797	0.0191241	298.966
648.0000	2.6981	-0.000964986	0.0200877	299.05
647.5000	2.50768	-0.000950992	0.0209756	299.151
647.0000	2.38683	-0.000955759	0.0213459	299.277
646.5000	2.45931	-0.000967287	0.0217149	299.423
646.0000	2.70226	-0.000950078	0.0229959	299.573
645.5000	2.89948	-0.00093621	0.023584	299.73
645.0000	2.81808	-0.000937886	0.0230155	299.874
644.5000	2.71739	-0.000934867	0.0228278	300.006
644.0000	2.62569	-0.000944006	0.022797	300.116
643.5000	2.69349	-0.000956323	0.0223431	300.198
643.0000	3.12543	-0.000945312	0.0218449	300.247
642.5000	3.22504	-0.000944904	0.02154	300.286
642.0000	3.34962	-0.000925393	0.0213597	300.3
641.5000	3.252	-0.00091127	0.0211234	300.301
641.0000	3.03895	-0.000924687	0.0211027	300.276
640.5000	2.76777	-0.000913707	0.0214779	300.238
640.0000	2.68774	-0.000902436	0.0220295	300.183
639.5000	2.81998	-0.000921525	0.0227941	300.106
639.0000	2.73413	-0.000914399	0.0233779	300.027
638.5000	2.68352	-0.000929706	0.0245117	299.948
638.0000	2.42727	-0.000928694	0.0250078	299.861
637.5000	2.15643	-0.000934232	0.0252791	299.771
637.0000	2.18817	-0.000913859	0.0263591	299.674
636.5000	2.28448	-0.000926933	0.0271271	299.575
636.0000	2.27015	-0.000938384	0.0273819	299.495
635.5000	2.37211	-0.00091917	0.0277856	299.421
635.0000	2.10672	-0.000913493	0.0286866	299.357
634.5000	1.98912	-0.000933652	0.0294391	299.293
634.0000	1.63452	-0.000938675	0.0300223	299.225
633.5000	1.56552	-0.000958492	0.0303213	299.169
633.0000	1.68126	-0.000965603	0.0311725	299.118
632.5000	1.61106	-0.000965551	0.0313003	299.06
632.0000	1.88176	-0.000968239	0.0314422	299.004
631.5000	1.90452	-0.000963731	0.0321395	298.973
631.0000	2.07654	-0.000958128	0.0327128	298.934
630.5000	2.02238	-0.000950624	0.0332457	298.893
630.0000	2.07289	-0.000955753	0.0338937	298.856
629.5000	2.25527	-0.000959844	0.0346305	298.813
629.0000	2.32449	-0.00094054	0.0351488	298.773
628.5000	2.55635	-0.000960362	0.0355335	298.739
628.0000	2.55011	-0.000945122	0.036149	298.701
627.5000	2.41043	-0.000942229	0.0370502	298.657
627.0000	2.29874	-0.000969836	0.0374925	298.619
626.5000	2.27672	-0.000977398	0.0375387	298.572
626.0000	2.32286	-0.000975639	0.0376975	298.528
625.5000	2.58734	-0.000975238	0.0385071	298.487
625.0000	2.5595	-0.000990941	0.0394027	298.447
624.5000	2.462	-0.00100461	0.0403293	298.413
624.0000	2.26675	-0.00100575	0.0412596	298.4
623.5000	2.36055	-0.00100568	0.0422405	298.396
623.0000	2.03314	-0.000996832	0.0430487	298.391
622.5000	2.0215	-0.00100075	0.0440931	298.407
622.0000	1.79884	-0.00100285	0.0448504	298.431
621.5000	1.81255	-0.000989492	0.0457274	298.473
621.0000	1.68357	-0.000985096	0.0466205	298.521
620.5000	1.59176	-0.00100438	0.0472251	298.578
620.0000	1.54739	-0.000987824	0.0477698	298.652
619.5000	1.50704	-0.000977702	0.0486617	298.75
619.0000	1.58129	-0.00098774	0.0499858	298.862
618.5000	1.52762	-0.00098696	0.0516442	298.981
618.0000	1.50145	-0.000988576	0.0535062	299.121
617.5000	1.70685	-0.000985456	0.0544509	299.277
617.0000	1.38561	-0.000961465	0.055095	299.436
616.5000	1.74673	-0.000938211	0.0556313	299.581
616.0000	1.9391	-0.000931093	0.0566822	299.731
615.5000	1.99196	-0.000945457	0.057277	299.876
615.0000	2.30214	-0.000940428	0.0577264	300.016
614.5000	2.41309	-0.000939777	0.0581027	300.166
614.0000	2.48842	-0.000945711	0.0584038	300.305
613.5000	2.64455	-0.000945542	0.0590113	300.452
613.0000	2.61354	-0.000932967	0.0594994	300.603
612.5000	2.74982	-0.000924976	0.0600115	300.747
612.0000	2.85087	-0.000940811	0.0606222	300.889
611.5000	2.88058	-0.00095585	0.0615648	301.032
611.0000	2.76567	-0.000961076	0.0619788	301.175
610.5000	2.88485	-0.000958334	0.0622841	301.314
610.0000	3.01783	-0.000972755	0.0623548	301.438
609.5000	2.80297	-0.000982694	0.0629452	301.551
609.0000	2.86591	-0.000978879	0.0635416	301.661
608.5000	2.86392	-0.000990752	0.06462	301.781
608.0000	2.72662	-0.000994304	0.0653193	301.895
607.5000	2.65986	-0.00101886	0.0655809	302.007
607.0000	2.61624	-0.00104009	0.0663599	302.133
606.5000	2.29956	-0.00105339	0.0670947	302.243
606.0000	2.48582	-0.0010372	0.0684062	302.34
605.5000	2.33378	-0.00103952	0.0694616	302.442
605.0000	2.31514	-0.00104389	0.0708174	302.539
604.5000	2.37105	-0.00104604	0.0719223	302.634
604.0000	2.19041	-0.00104304	0.0733101	302.728
603.5000	2.11693	-0.00103906	0.0748103	302.817
603.0000	2.32916	-0.00103301	0.0757586	302.892
602.5000	2.41548	-0.00102547	0.0772893	302.977
602.0000	2.68765	-0.001025	0.0788584	303.049
601.5000	2.57631	-0.00102693	0.0803475	303.125
601.0000	2.57016	-0.00103165	0.0818847	303.206
600.5000	2.67284	-0.00103831	0.083903	303.28
600.0000	2.68324	-0.00104061	0.0853943	303.327
599.5000	2.57156	-0.00102638	0.0876945	303.367
599.0000	2.69376	-0.000997133	0.089567	303.4
598.5000	2.60544	-0.000982335	0.0920332	303.432
598.0000	2.67915	-0.000972465	0.0940482	303.461
597.5000	2.54547	-0.000985212	0.0959359	303.495
597.0000	2.5386	-0.00101405	0.0981007	303.527
596.5000	2.29704	-0.00102607	0.100241	303.532
596.0000	2.42756	-0.00101766	0.102482	303.54
595.5000	2.25831	-0.00103769	0.104649	303.558
595.0000	2.10916	-0.00104921	0.107279	303.581
594.5000	2.15029	-0.00104926	0.109864	303.6
594.0000	2.19724	-0.00103256	0.111979	303.625
593.5000	2.11202	-0.00103616	0.11446	303.632
593.0000	2.07585	-0.00103353	0.117518	303.661
592.5000	2.22388	-0.00100385	0.120042	303.705
592.0000	2.05948	-0.00100882	0.122622	303.776
591.5000	2.14013	-0.00100149	0.124861	303.844
591.0000	2.14391	-0.000996535	0.127584	303.914
590.5000	2.06741	-0.00101305	0.130253	304.019
590.0000	2.04451	-0.00102499	0.133315	304.152
589.5000	1.97797	-0.00102651	0.136379	304.271
589.0000	2.07454	-0.00101159	0.139481	304.398
588.5000	2.04855	-0.00101022	0.142701	304.562
588.0000	1.94629	-0.000989468	0.146368	304.754
587.5000	2.03848	-0.000992274	0.14999	304.956
587.0000	1.91926	-0.000990535	0.153673	305.202
586.5000	1.62552	-0.000993489	0.157165	305.437
586.0000	1.0538	-0.000988381	0.161302	305.685
585.5000	0.889202	-0.000995161	0.165327	305.975
585.0000	1.01962	-0.000973331	0.169277	306.273
584.5000	0.924266	-0.000959507	0.173126	306.562
584.0000	0.723157	-0.000960378	0.177529	306.881
583.5000	0.585655	-0.000939118	0.182321	307.235
583.0000	0.388583	-0.000948383	0.187682	307.622
582.5000	0.17281	-0.000936501	0.192904	308.036
582.0000	0.0319217	-0.000915045	0.198172	308.451
581.5000	-0.067633	-0.000885763	0.203936	308.919
581.0000	-0.3614	-0.000875864	0.210158	309.407
580.5000	-0.46399	-0.000864222	0.216454	309.908
580.0000	-0.823424	-0.00084639	0.222471	310.402
579.5000	-1.07139	-0.000827763	0.228719	310.933
579.0000	-1.42471	-0.000798038	0.235098	311.467
578.5000	-1.62152	-0.000772668	0.242002	312.011
578.0000	-1.64484	-0.00074047	0.249076	312.603
577.5000	-1.87144	-0.000721838	0.256042	313.242
577.0000	-2.32967	-0.000692543	0.263808	313.874
576.5000	-2.73257	-0.000693915	0.272489	314.591
576.0000	-2.95717	-0.000691062	0.280946	315.293
575.5000	-3.35335	-0.000680499	0.289899	316.03
575.0000	-3.65355	-0.000648724	0.297959	316.737
574.5000	-4.15276	-0.000618248	0.307085	317.519
574.0000	-4.4662	-0.000596459	0.316338	318.287
573.5000	-4.94649	-0.000561762	0.325657	319.073
573.0000	-5.39772	-0.00053525	0.335112	319.922
572.5000	-5.82136	-0.000504046	0.344146	320.739
572.0000	-5.91325	-0.000488948	0.354571	321.702
571.5000	-6.39309	-0.000469284	0.364861	322.63
571.0000	-6.69882	-0.000449262	0.376319	323.619
570.5000	-6.99173	-0.000435501	0.387615	324.647
570.0000	-7.38046	-0.000405283	0.398549	325.654
569.5000	-8.14018	-0.000394933	0.410711	326.724
569.0000	-8.62144	-0.000367396	0.42287	327.791
568.5000	-9.14768	-0.000358675	0.433996	328.823
568.0000	-9.44218	-0.000340879	0.445145	329.888
567.5000	-10.4182	-0.000315417	0.456635	330.982
567.0000	-10.7999	-0.000297859	0.468046	332.033
566.5000	-11.0246	-0.000286574	0.47933	333.055
566.0000	-11.4791	-0.000278438	0.490471	334.064
565.5000	-11.6843	-0.000285905	0.501067	335.055
565.0000	-12.0398	-0.000289332	0.511659	336.014
564.5000	-12.4807	-0.000292675	0.522173	336.959
564.0000	-12.782	-0.000284	0.532125	337.821
563.5000	-12.9593	-0.000269424	0.541282	338.636
563.0000	-13.1589	-0.000261958	0.550363	339.475
562.5000	-13.5153	-0.000271324	0.558754	340.222
562.0000	-13.728	-0.000291636	0.566896	340.94
561.5000	-13.9736	-0.00031099	0.57568	341.674
561.0000	-13.8913	-0.000333856	0.583589	342.36
560.5000	-13.5998	-0.000328631	0.59087	342.994
560.0000	-13.443	-0.000357555	0.598109	343.596
559.5000	-13.1183	-0.000378936	0.604822	344.098
559.0000	-12.9592	-0.000418143	0.610529	344.521
558.5000	-12.9529	-0.000451789	0.615199	344.874
558.0000	-12.5017	-0.000512014	0.619084	345.155
557.5000	-12.4862	-0.000592128	0.622912	345.396
557.0000	-12.1554	-0.00061632	0.626503	345.599
556.5000	-11.8137	-0.000657632	0.629016	345.738
556.0000	-11.661	-0.000743441	0.630486	345.821
555.5000	-11.4634	-0.000806395	0.631868	345.86
555.0000	-10.7702	-0.000839167	0.632906	345.842
554.5000	-10.7377	-0.000898198	0.633792	345.767
554.0000	-10.1921	-0.000952514	0.633691	345.649
553.5000	-9.86388	-0.000987399	0.63301	345.468
553.0000	-9.60252	-0.00101346	0.632051	345.267
552.5000	-9.47296	-0.00106781	0.631304	345.037
552.0000	-9.12201	-0.00110661	0.630082	344.751
551.5000	-9.41429	-0.00115167	0.628616	344.453
551.0000	-9.40337	-0.00118004	0.626547	344.134
550.5000	-9.16533	-0.00121722	0.624219	343.772
550.0000	-8.98732	-0.00122434	0.622045	343.398
549.5000	-8.79254	-0.0012243	0.619956	343.014
549.0000	-8.41712	-0.00120698	0.6173	342.633
548.5000	-8.20636	-0.00121294	0.614555	342.254
548.0000	-8.19113	-0.00122047	0.612737	341.849
547.5000	-8.00246	-0.0012063	0.611153	341.493
547.0000	-8.10073	-0.00121379	0.609258	341.083
546.5000	-7.77115	-0.00121739	0.607269	340.729
546.0000	-7.65597	-0.00120513	0.604851	340.403
545.5000	-7.6931	-0.00117789	0.603458	340.072
545.0000	-7.78368	-0.00118147	0.602143	339.797
544.5000	-7.42339	-0.00119511	0.600735	339.501
544.0000	-7.35015	-0.00116169	0.599333	339.252
543.5000	-7.14013	-0.00114018	0.598244	339.023
543.0000	-6.75999	-0.00112466	0.597634	338.828
542.5000	-6.63634	-0.00111255	0.597622	338.665
542.0000	-6.69572	-0.00108812	0.597584	338.535
541.5000	-6.56406	-0.00107877	0.597732	338.443
541.0000	-6.75912	-0.00107731	0.597745	338.36
540.5000	-6.85634	-0.00106749	0.598639	338.294
540.0000	-6.89781	-0.00104606	0.599869	338.248
539.5000	-7.0331	-0.00102871	0.601087	338.253
539.0000	-7.11749	-0.00101809	0.602309	338.295
538.5000	-7.28235	-0.00101861	0.604093	338.375
538.0000	-7.54337	-0.00102317	0.606366	338.462
537.5000	-7.82564	-0.00102251	0.608997	338.597
537.0000	-7.79697	-0.00100731	0.611684	338.761
536.5000	-8.13381	-0.00099116	0.614765	338.95
536.0000	-8.36475	-0.000991367	0.618456	339.185
535.5000	-8.5352	-0.00101826	0.622062	339.42
535.0000	-8.73286	-0.00101483	0.626222	339.695
534.5000	-9.05009	-0.00101993	0.630213	339.964
534.0000	-8.8412	-0.00100676	0.634626	340.281
533.5000	-9.17899	-0.00101581	0.639012	340.618
533.0000	-9.16645	-0.00101762	0.64331	340.957
532.5000	-9.30586	-0.00102229	0.647804	341.324
532.0000	-9.45752	-0.0010171	0.65264	341.712
531.5000	-9.35362	-0.00102053	0.657952	342.136
531.0000	-9.3114	-0.00102982	0.664108	342.585
530.5000	-9.43017	-0.00103279	0.669711	343.018
530.0000	-9.56711	-0.00104317	0.675515	343.49
529.5000	-9.44326	-0.00105263	0.681186	343.949
529.0000	-9.21811	-0.00105093	0.686622	344.355
528.5000	-9.2607	-0.00107275	0.691988	344.776
528.0000	-9.22754	-0.00112315	0.697194	345.185
527.5000	-9.15907	-0.00113206	0.702688	345.597
527.0000	-9.09061	-0.00114774	0.708681	346.047
526.5000	-9.06718	-0.00117071	0.714087	346.474
526.0000	-8.54945	-0.00118175	0.719972	346.918
525.5000	-8.52252	-0.00121867	0.72556	347.33
525.0000	-8.43856	-0.00125755	0.731131	347.745
524.5000	-8.4138	-0.00128473	0.736378	348.114
524.0000	-8.06019	-0.00131851	0.741169	348.441
523.5000	-7.95261	-0.00136133	0.745752	348.781
523.0000	-7.52767	-0.00139215	0.750021	349.087
522.5000	-7.25879	-0.00143822	0.753939	349.385
522.0000	-6.92723	-0.00148047	0.758099	349.679
521.5000	-6.49188	-0.00152109	0.762377	349.962
521.0000	-6.49456	-0.00157033	0.766213	350.219
520.5000	-6.09763	-0.00162664	0.770115	350.485
520.0000	-5.71057	-0.0016747	0.773511	350.708
519.5000	-5.43551	-0.00169696	0.776945	350.906
519.0000	-5.03215	-0.00175519	0.780083	351.101
518.5000	-4.60769	-0.00178614	0.782726	351.277
518.0000	-4.41168	-0.00183796	0.785869	351.471
517.5000	-4.14553	-0.00189793	0.788947	351.648
517.0000	-4.10773	-0.00195342	0.792073	351.806
516.5000	-3.6699	-0.00197908	0.795281	351.97
516.0000	-3.14377	-0.00203594	0.798385	352.145
515.5000	-3.02706	-0.00206548	0.801112	352.33
515.0000	-2.83005	-0.00211704	0.803575	352.476
514.5000	-2.63032	-0.00215694	0.806125	352.645
514.0000	-2.39532	-0.00218391	0.808308	352.765
513.5000	-1.84655	-0.00219308	0.810749	352.904
513.0000	-1.93692	-0.00224614	0.812849	353.045
512.5000	-1.61259	-0.00225468	0.815417	353.209
512.0000	-1.60098	-0.00229033	0.81788	353.356
511.5000	-1.25329	-0.00230668	0.820132	353.519
511.0000	-0.92596	-0.00233111	0.822286	353.654
510.5000	-0.776224	-0.00236038	0.824558	353.775
510.0000	-0.567764	-0.0023744	0.826796	353.896
509.5000	-0.385527	-0.00237772	0.828757	354.003
509.0000	-0.0622073	-0.0023941	0.83068	354.119
508.5000	0.0864353	-0.00242024	0.832279	354.19
508.0000	0.429048	-0.00242895	0.834053	354.246
507.5000	0.444703	-0.0024681	0.835704	354.279
507.0000	0.853178	-0.0024865	0.837487	354.32
506.5000	0.782193	-0.00249774	0.839236	354.362
506.0000	0.843469	-0.00254199	0.840601	354.407
505.5000	1.09078	-0.00255619	0.841875	354.44
505.0000	0.992071	-0.00259262	0.843114	354.461
504.5000	1.47771	-0.0026308	0.844485	354.483
504.0000	1.97331	-0.00265175	0.845264	354.446
503.5000	2.32976	-0.00269639	0.84585	354.395
503.0000	2.57613	-0.00273356	0.846247	354.306
502.5000	3.24308	-0.00274743	0.846399	354.211
502.0000	3.21673	-0.00277062	0.846324	354.099
501.5000	3.50066	-0.00282602	0.846228	353.964
501.0000	3.5168	-0.00288898	0.845869	353.789
500.5000	4.02843	-0.00290943	0.845463	353.582
500.0000	4.2452	-0.00294092	0.844897	353.342
499.5000	4.34159	-0.00298817	0.843629	353.051
499.0000	4.83482	-0.00302395	0.841942	352.643
498.5000	5.25655	-0.00305834	0.839861	352.111
498.0000	5.53544	-0.00306355	0.837442	351.452
497.5000	5.73919	-0.00310984	0.835114	350.639
497.0000	5.7787	-0.00314791	0.833329	349.787
496.5000	6.14132	-0.00316692	0.831597	348.87
496.0000	6.16453	-0.00319647	0.830657	348.094
495.5000	5.92891	-0.00321371	0.830105	347.492
495.0000	5.95976	-0.00322913	0.828889	347.04
494.5000	5.72466	-0.00325308	0.827056	346.631
494.0000	5.98927	-0.00329521	0.824945	346.238
493.5000	6.29924	-0.00328831	0.822584	345.818
493.0000	6.60231	-0.00331144	0.820483	345.44
492.5000	6.66883	-0.00332771	0.818319	345.056
492.0000	6.74929	-0.00337209	0.815817	344.652
491.5000	7.09177	-0.00338555	0.81321	344.283
491.0000	7.09676	-0.0034248	0.810831	343.937
490.5000	7.23661	-0.00345622	0.808442	343.629
490.0000	7.26409	-0.00349797	0.806065	343.374
489.5000	7.46079	-0.00353717	0.803658	343.178
489.0000	7.91517	-0.00356044	0.800965	342.98
488.5000	7.97253	-0.00357955	0.797853	342.755
488.0000	8.2276	-0.00361424	0.793902	342.37
487.5000	8.59213	-0.00363411	0.789328	341.758
487.0000	9.03068	-0.0036423	0.785406	341.019
486.5000	9.36986	-0.00366004	0.781383	340.149
486.0000	9.58639	-0.00367427	0.777695	339.265
485.5000	9.79195	-0.00370597	0.775117	338.383
485.0000	9.79082	-0.00374597	0.772994	337.551
484.5000	9.94795	-0.00375976	0.770573	336.869
484.0000	10.1563	-0.00378112	0.767554	336.26
483.5000	10.2008	-0.00381365	0.764617	335.746
483.0000	10.058	-0.00382327	0.761128	335.257
482.5000	10.0176	-0.00386204	0.757563	334.848
482.0000	10.0907	-0.00386533	0.753755	334.472
481.5000	10.3459	-0.00386358	0.750089	334.109
481.0000	10.3926	-0.00388014	0.746625	333.773
480.5000	10.3794	-0.00389686	0.742943	333.461
480.0000	10.2728	-0.00391941	0.738851	333.148
479.5000	10.3858	-0.00393981	0.734708	332.84
479.0000	10.4531	-0.00395635	0.729388	332.442
478.5000	10.4794	-0.00397556	0.723761	331.834
478.0000	10.4798	-0.00399406	0.718787	330.946
477.5000	10.3532	-0.00399813	0.716052	330.124
477.0000	10.0603	-0.00398406	0.713606	329.51
476.5000	10.2287	-0.00398297	0.708768	328.92
476.0000	10.4122	-0.00399341	0.702714	328.149
475.5000	10.4832	-0.00399036	0.696212	327.134
475.0000	10.6415	-0.0039721	0.689826	325.927
474.5000	10.7376	-0.00398079	0.684283	324.63
474.0000	10.73	-0.00396107	0.679174	323.205
473.5000	10.5146	-0.00397495	0.673628	321.569
473.0000	10.6471	-0.00396467	0.667881	319.761
472.5000	10.6607	-0.00393712	0.662828	317.808
472.0000	10.4696	-0.00391274	0.659864	316.14
471.5000	10.6378	-0.00388643	0.657457	314.79
471.0000	10.5286	-0.0038747	0.655332	313.969
470.5000	10.4581	-0.00385928	0.652944	313.414
470.0000	10.279	-0.00385355	0.650095	313.182
469.5000	10.1233	-0.00386451	0.645563	313.076
469.0000	10.2173	-0.00385537	0.637562	312.671
468.5000	10.0908	-0.00386699	0.629217	311.841
468.0000	9.84184	-0.00384041	0.622832	310.882
467.5000	9.73183	-0.00385208	0.617977	310.041
467.0000	9.79742	-0.00382705	0.614358	309.414
466.5000	9.6564	-0.00381277	0.611137	308.988
466.0000	9.56536	-0.00380225	0.60717	308.748
465.5000	9.72957	-0.00376817	0.602732	308.706
465.0000	9.70099	-0.00373696	0.597853	308.92
464.5000	9.67129	-0.00371029	0.591833	309.318
464.0000	9.52951	-0.00369459	0.583956	309.612
463.5000	9.26237	-0.00368289	0.574963	309.6
463.0000	9.07802	-0.00367106	0.566224	309.256
462.5000	8.88153	-0.0036384	0.558831	308.73
462.0000	8.70855	-0.00357751	0.55259	308.151
461.5000	8.80303	-0.00352577	0.546823	307.641
461.0000	8.78821	-0.00348631	0.541113	307.245
460.5000	8.64906	-0.00345349	0.53512	306.973
460.0000	8.58182	-0.00340854	0.529333	306.804
459.5000	8.47486	-0.00337721	0.523226	306.694
459.0000	8.34661	-0.00333737	0.516227	306.544
458.5000	8.30791	-0.0033136	0.508736	306.306
458.0000	8.15839	-0.00327811	0.500984	305.939
457.5000	8.02474	-0.00325638	0.493131	305.36
457.0000	7.96332	-0.00321576	0.485601	304.586
456.5000	7.6195	-0.00318503	0.479404	303.817
456.0000	7.53191	-0.00313053	0.47305	303.146
455.5000	7.35258	-0.00307964	0.465144	302.354
455.0000	7.17319	-0.00303392	0.457492	301.407
454.5000	7.18477	-0.00297544	0.451402	300.477
454.0000	7.24994	-0.00293927	0.446017	299.782
453.5000	7.25381	-0.00290163	0.439739	299.302
453.0000	6.9535	-0.00288281	0.433035	298.852
452.5000	6.91324	-0.00284533	0.42645	298.369
452.0000	6.74374	-0.00279399	0.420037	297.842
451.5000	6.97166	-0.00275215	0.413381	297.296
451.0000	6.7745	-0.00271154	0.406958	296.764
450.5000	6.61818	-0.00265598	0.400471	296.21
450.0000	6.35286	-0.00260601	0.394588	295.665
449.5000	6.39866	-0.00257192	0.389393	295.217
449.0000	6.25851	-0.00254664	0.384547	294.923
448.5000	6.09737	-0.0025119	0.378532	294.666
448.0000	6.22189	-0.00248166	0.372023	294.303
447.5000	6.30067	-0.00245329	0.366577	293.91
447.0000	6.06696	-0.00241902	0.362594	293.714
446.5000	6.06111	-0.00237939	0.358438	293.721
446.0000	5.97877	-0.00237066	0.35188	293.634
445.5000	5.63954	-0.00233675	0.345146	293.264
445.0000	5.40929	-0.00231104	0.339268	292.704
444.5000	5.2971	-0.00226757	0.333754	292.103
444.0000	5.16924	-0.002211	0.328363	291.486
443.5000	4.93992	-0.00217966	0.323133	290.817
443.0000	4.73851	-0.00214526	0.318676	290.207
442.5000	4.7332	-0.00211584	0.314365	289.619
442.0000	4.53533	-0.00210314	0.310319	289.128
441.5000	4.42376	-0.00207718	0.305682	288.613
441.0000	4.20579	-0.00203687	0.30137	288.146
440.5000	4.10838	-0.00199487	0.29719	287.693
440.0000	4.07307	-0.00196779	0.292867	287.232
439.5000	3.97456	-0.00193315	0.288394	286.765
439.0000	3.78128	-0.00188851	0.283446	286.261
438.5000	3.89431	-0.00185236	0.278298	285.759
438.0000	3.73529	-0.00180757	0.273222	285.284
437.5000	3.83481	-0.00176506	0.268353	284.819
437.0000	3.9746	-0.00172465	0.263071	284.335
436.5000	3.91783	-0.0017067	0.258904	283.92
436.0000	3.87601	-0.00168185	0.255013	283.546
435.5000	3.78552	-0.00166865	0.250652	283.194
435.0000	3.76373	-0.0016221	0.246139	282.865
434.5000	3.70246	-0.00158532	0.241599	282.536
434.0000	3.75591	-0.00155156	0.237275	282.194
433.5000	3.65306	-0.00150796	0.233273	281.851
433.0000	3.67314	-0.00147471	0.229392	281.47
432.5000	3.66101	-0.00145367	0.225625	281.093
432.0000	3.66884	-0.00142245	0.221553	280.694
431.5000	3.59679	-0.00140569	0.217561	280.292
431.0000	3.58875	-0.00139373	0.213849	279.902
430.5000	3.3994	-0.00136049	0.210329	279.519
430.0000	3.23658	-0.0013447	0.207123	279.15
429.5000	3.21307	-0.00132205	0.203602	278.757
429.0000	3.01975	-0.0012984	0.200186	278.369
428.5000	3.10605	-0.00126035	0.196807	277.993
428.0000	3.12271	-0.00123339	0.19316	277.617
427.5000	2.91405	-0.00121545	0.190125	277.277
427.0000	2.80764	-0.0011871	0.187151	276.931
426.5000	2.87142	-0.00118294	0.184243	276.583
426.0000	2.84442	-0.00116483	0.181227	276.206
425.5000	2.83193	-0.00115602	0.178322	275.801
425.0000	2.76419	-0.00114459	0.175253	275.372
424.5000	2.89298	-0.00112574	0.172246	274.916
424.0000	2.95561	-0.00110182	0.169438	274.462
423.5000	2.89073	-0.00108359	0.167141	274.056
423.0000	2.62657	-0.00107013	0.164855	273.716
422.5000	2.5147	-0.00104873	0.162463	273.423
422.0000	2.46706	-0.00103844	0.159883	273.143
421.5000	2.59122	-0.00102094	0.157377	272.879
421.0000	2.64981	-0.000995034	0.155165	272.636
420.5000	2.52398	-0.000986346	0.152887	272.391
420.0000	2.5311	-0.000968373	0.150655	272.135
419.5000	2.59266	-0.000952701	0.148361	271.856
419.0000	2.54712	-0.000939364	0.146188	271.599
418.5000	2.47099	-0.000935575	0.143895	271.366
418.0000	2.29393	-0.000915216	0.141987	271.145
417.5000	2.2226	-0.000892873	0.139905	270.927
417.0000	2.20702	-0.000873679	0.138142	270.724
416.5000	2.20528	-0.000861924	0.136622	270.577
416.0000	1.98753	-0.000843391	0.135036	270.488
415.5000	1.92215	-0.000837525	0.133282	270.398
415.0000	1.95969	-0.000821943	0.131319	270.254
414.5000	2.12952	-0.000812985	0.129673	270.064
414.0000	2.27548	-0.000803605	0.128366	269.864
413.5000	2.1277	-0.000788032	0.127173	269.655
413.0000	1.89976	-0.000779673	0.126036	269.465
412.5000	2.04192	-0.000767062	0.12475	269.285
412.0000	1.98763	-0.000750824	0.12376	269.14
411.5000	1.93739	-0.000739865	0.122561	269
411.0000	1.8993	-0.000729691	0.121509	268.877
410.5000	1.93038	-0.000726778	0.12068	268.766
410.0000	1.99862	-0.000706307	0.120147	268.681
409.5000	1.9103	-0.000692236	0.119551	268.602
409.0000	1.93373	-0.000691825	0.118947	268.541
408.5000	1.94269	-0.000684964	0.118093	268.485
408.0000	1.85508	-0.000677434	0.11715	268.435
407.5000	1.96981	-0.000675303	0.116184	268.377
407.0000	1.94605	-0.000669134	0.115335	268.303
406.5000	1.87345	-0.000671179	0.11466	268.23
406.0000	1.90137	-0.000653642	0.114035	268.157
405.5000	1.688	-0.00064697	0.113276	268.077
405.0000	1.8297	-0.000643067	0.112602	267.983
404.5000	1.87251	-0.000626664	0.111954	267.872
404.0000	1.74666	-0.000626306	0.111701	267.74
403.5000	1.73489	-0.000623009	0.111228	267.566
403.0000	1.81218	-0.000617748	0.111191	267.387
402.5000	1.9288	-0.000607017	0.110661	267.18
402.0000	1.86052	-0.000602291	0.110608	266.987
401.5000	1.92549	-0.000609097	0.110763	266.782
401.0000	1.85553	-0.00059726	0.110765	266.603
400.5000	1.80671	-0.000580997	0.110854	266.443
400.0000	1.65936	-0.000582175	0.110893	266.311
399.5000	1.73112	-0.000580576	0.111348	266.18
399.0000	1.65428	-0.000573398	0.111948	266.094
398.5000	1.66337	-0.000573425	0.112208	266.012
398.0000	1.59733	-0.000575838	0.112317	265.943
397.5000	1.45132	-0.000576606	0.112391	265.895
397.0000	1.4793	-0.000570512	0.112797	265.873
396.5000	1.50907	-0.000576687	0.113009	265.881
396.0000	1.52563	-0.000581381	0.11328	265.912
395.5000	1.55599	-0.000580524	0.113315	265.98
395.0000	1.48836	-0.000567819	0.113544	266.079
394.5000	1.38829	-0.000570383	0.113907	266.205
394.0000	1.2795	-0.000566301	0.114368	266.361
393.5000	1.17451	-0.00056666	0.114472	266.528
393.0000	1.10662	-0.000576839	0.114369	266.704
392.5000	1.33113	-0.000564025	0.114401	266.867
392.0000	1.37162	-0.000565293	0.114694	267.018
391.5000	1.32815	-0.000556356	0.115148	267.149
391.0000	1.30172	-0.000569264	0.115558	267.277
390.5000	1.29436	-0.000570853	0.115663	267.39
390.0000	1.18641	-0.00056467	0.115891	267.503
389.5000	1.1898	-0.000554656	0.116518	267.613
389.0000	1.37231	-0.000559028	0.117297	267.715
388.5000	1.19097	-0.000553829	0.117801	267.809
388.0000	1.2662	-0.000536771	0.11819	267.899
387.5000	1.27349	-0.000535476	0.118872	267.984
387.0000	1.14145	-0.000545767	0.119973	268.061
386.5000	1.0789	-0.000554087	0.120839	268.128
386.0000	0.958874	-0.000556305	0.12179	268.187
385.5000	0.901187	-0.00057599	0.12267	268.234
385.0000	1.02253	-0.000578	0.123639	268.284
384.5000	0.835522	-0.000580894	0.124634	268.334
384.0000	0.688279	-0.000583634	0.12573	268.382
383.5000	0.767066	-0.000573856	0.126625	268.435
383.0000	0.880031	-0.000584658	0.127384	268.488
382.5000	1.02473	-0.000579758	0.128248	268.543
382.0000	1.09641	-0.000574161	0.129593	268.602
381.5000	1.12736	-0.000586399	0.131035	268.659
381.0000	1.14022	-0.000577875	0.132117	268.713
380.5000	1.12312	-0.000583618	0.133084	268.773
380.0000	1.15257	-0.000588481	0.134153	268.821
379.5000	1.08885	-0.000608465	0.135201	268.864
379.0000	1.01055	-0.000606906	0.135994	268.916
378.5000	1.15904	-0.000606952	0.136663	268.985
378.0000	1.2486	-0.000613354	0.137262	269.043
377.5000	1.43502	-0.000621401	0.138056	269.104
377.0000	1.48327	-0.000603682	0.138776	269.158
376.5000	1.54404	-0.000596454	0.13968	269.206
376.0000	1.60654	-0.000611037	0.140531	269.243
375.5000	1.70602	-0.000619474	0.141153	269.276
375.0000	1.75263	-0.000628148	0.141795	269.303
374.5000	1.57418	-0.000626381	0.142403	269.32
374.0000	1.54654	-0.00062549	0.14296	269.328
373.5000	1.56117	-0.000634791	0.143379	269.332
373.0000	1.50894	-0.00064602	0.143656	269.345
372.5000	1.55709	-0.000659654	0.143895	269.346
372.0000	1.65665	-0.000656268	0.144354	269.361
371.5000	1.66133	-0.000655766	0.144716	269.375
371.0000	1.69401	-0.000668943	0.145457	269.408
370.5000	1.81739	-0.000655415	0.146163	269.432
370.0000	1.90252	-0.000652574	0.146664	269.452
369.5000	1.92882	-0.000657457	0.147045	269.469
369.0000	1.90899	-0.000667741	0.147533	269.496
368.5000	1.94568	-0.000680005	0.14815	269.529
368.0000	1.78417	-0.000692945	0.148643	269.576
367.5000	1.79979	-0.000690911	0.149211	269.624
367.0000	1.89806	-0.000700028	0.150074	269.683
366.5000	1.92957	-0.000706136	0.150767	269.755
366.0000	1.88455	-0.000716156	0.151442	269.837
365.5000	1.82571	-0.000718608	0.152101	269.918
365.0000	1.78846	-0.000707918	0.152534	269.992
364.5000	1.79085	-0.000702379	0.153271	270.072
364.0000	1.67933	-0.000720139	0.153824	270.153
363.5000	1.76562	-0.000721301	0.154813	270.245
363.0000	1.78628	-0.000730349	0.155659	270.328
362.5000	1.71437	-0.000743688	0.156419	270.417
362.0000	1.7664	-0.000755939	0.157192	270.509
361.5000	1.81391	-0.000752256	0.158101	270.597
361.0000	1.73052	-0.000748906	0.158912	270.68
360.5000	1.52535	-0.000751362	0.159657	270.776
360.0000	1.6062	-0.000744328	0.160288	270.853
359.5000	1.7126	-0.000750028	0.160941	270.939
359.0000	1.70567	-0.000761707	0.161306	271.02
358.5000	1.7445	-0.000766866	0.161708	271.115
358.0000	1.79136	-0.000772515	0.161937	271.191
357.5000	1.84458	-0.000771604	0.162203	271.272
357.0000	2.02222	-0.000788276	0.162744	271.355
356.5000	2.17646	-0.000785862	0.163447	271.424
356.0000	2.17668	-0.000800424	0.163879	271.501
355.5000	2.24752	-0.000808773	0.164107	271.562
355.0000	2.3112	-0.000817186	0.164362	271.635
354.5000	2.205	-0.000811984	0.164624	271.711
354.0000	2.19727	-0.000817186	0.164843	271.774
353.5000	2.09172	-0.000833539	0.165202	271.848
353.0000	2.03881	-0.000843869	0.165528	271.927
352.5000	1.93239	-0.000863341	0.16595	272.012
352.0000	2.10083	-0.000874614	0.166441	272.102
351.5000	2.24541	-0.000880061	0.167035	272.197
351.0000	2.25943	-0.00089358	0.167737	272.274
350.5000	2.29728	-0.000900162	0.168592	272.353
350.0000	2.2992	-0.000903737	0.169308	272.416
349.5000	2.17431	-0.000914666	0.170252	272.492
349.0000	2.20489	-0.000929935	0.171202	272.562
348.5000	1.98731	-0.00092934	0.17228	272.635
348.0000	2.03957	-0.000936768	0.173157	272.713
347.5000	1.89454	-0.000941686	0.174303	272.79
347.0000	1.86789	-0.000951003	0.175571	272.874
346.5000	1.72915	-0.000973472	0.176518	272.947
346.0000	1.81187	-0.00098536	0.177496	273.03
345.5000	1.90601	-0.00100504	0.178728	273.119
345.0000	1.89072	-0.00102045	0.179951	273.206
344.5000	2.10835	-0.00102995	0.18115	273.289
344.0000	2.14232	-0.00104283	0.182392	273.36
343.5000	2.14337	-0.00106473	0.18324	273.419
343.0000	2.06	-0.00109544	0.184067	273.486
342.5000	2.09915	-0.00109985	0.184762	273.554
342.0000	1.98386	-0.00110091	0.185559	273.634
341.5000	1.98121	-0.00112434	0.186424	273.712
341.0000	2.27731	-0.00112567	0.187456	273.786
340.5000	2.30045	-0.00115744	0.18831	273.868
340.0000	2.3588	-0.00118046	0.189087	273.947
339.5000	2.4356	-0.00121388	0.189554	274.022
339.0000	2.50393	-0.00122693	0.190417	274.106
338.5000	2.56956	-0.00124012	0.19149	274.203
338.0000	2.61405	-0.00125148	0.192452	274.295
337.5000	2.66788	-0.00125871	0.19333	274.388
337.0000	2.74662	-0.0012788	0.194061	274.476
336.5000	2.66028	-0.00129255	0.194948	274.56
336.0000	2.86977	-0.00130521	0.195864	274.658
335.5000	3.00042	-0.00132131	0.196901	274.765
335.0000	3.04067	-0.00134421	0.19778	274.859
334.5000	3.11435	-0.00136007	0.198656	274.961
334.0000	3.20472	-0.0013918	0.199721	275.069
333.5000	3.51184	-0.0014119	0.201186	275.181
333.0000	3.49182	-0.0014245	0.202374	275.3
332.5000	3.31125	-0.00145372	0.20318	275.411
332.0000	3.39876	-0.00145798	0.204112	275.526
331.5000	3.51914	-0.00147199	0.205332	275.647
331.0000	3.51073	-0.00148212	0.20687	275.794
330.5000	3.59722	-0.00149348	0.207947	275.919
330.0000	3.4775	-0.00151863	0.208978	276.032
329.5000	3.52908	-0.00154451	0.210153	276.158
329.0000	3.63722	-0.0015863	0.211243	276.287
328.5000	3.68963	-0.00159535	0.212493	276.419
328.0000	3.79409	-0.00162352	0.213483	276.537
327.5000	3.58251	-0.00164694	0.214615	276.65
327.0000	3.50061	-0.00166939	0.215862	276.75
326.5000	3.54093	-0.00168451	0.217505	276.882
326.0000	3.44842	-0.00170795	0.2193	277.026
325.5000	3.39217	-0.00172874	0.220925	277.175
325.0000	3.2346	-0.00175544	0.222152	277.318
324.5000	3.21137	-0.00179114	0.223646	277.472
324.0000	3.44841	-0.00181273	0.225482	277.64
323.5000	3.47464	-0.00184609	0.227357	277.801
323.0000	3.37241	-0.00188208	0.228923	277.959
322.5000	3.4223	-0.00190671	0.230371	278.11
322.0000	3.48401	-0.00193296	0.231803	278.272
321.5000	3.45078	-0.00195957	0.233597	278.445
321.0000	3.4908	-0.00198287	0.235464	278.622
320.5000	3.53963	-0.00200063	0.237281	278.788
320.0000	3.54731	-0.0020259	0.238923	278.953
319.5000	3.53574	-0.00205915	0.240665	279.127
319.0000	3.7257	-0.00206965	0.242348	279.319
318.5000	3.76337	-0.00210342	0.244102	279.527
318.0000	3.83107	-0.00213967	0.24572	279.718
317.5000	4.03782	-0.00216042	0.247265	279.883
317.0000	4.06201	-0.00219853	0.249116	280.05
316.5000	4.12223	-0.00221165	0.251077	280.212
316.0000	4.2141	-0.00224707	0.253141	280.387
315.5000	4.06943	-0.00226721	0.254954	280.572
315.0000	4.03211	-0.00229186	0.256841	280.775
314.5000	4.01617	-0.00231527	0.258761	280.981
314.0000	4.08897	-0.00233689	0.260849	281.193
313.5000	4.09631	-0.00237337	0.262902	281.399
313.0000	4.28269	-0.0023942	0.264985	281.618
312.5000	4.16652	-0.00242911	0.266996	281.841
312.0000	4.09678	-0.00245462	0.269274	282.071
311.5000	4.10666	-0.00246305	0.271546	282.311
311.0000	4.0696	-0.00249011	0.274216	282.567
310.5000	4.13108	-0.00251626	0.276736	282.849
310.0000	4.02036	-0.00252949	0.279311	283.115
309.5000	4.04963	-0.00255074	0.282034	283.392
309.0000	4.28229	-0.00256617	0.285066	283.704
308.5000	4.42415	-0.0025902	0.287993	284.036
308.0000	4.367	-0.00260381	0.290804	284.353
307.5000	4.31754	-0.00264244	0.294129	284.711
307.0000	4.41986	-0.00266358	0.297455	285.049
306.5000	4.55467	-0.00268829	0.301318	285.439
306.0000	4.87393	-0.00269891	0.305084	285.806
305.5000	4.77033	-0.00271994	0.309198	286.234
305.0000	4.89537	-0.00273905	0.313354	286.655
304.5000	4.83966	-0.00275174	0.318253	287.131
304.0000	4.98071	-0.00276551	0.323431	287.627
303.5000	5.09659	-0.00278782	0.328684	288.131
303.0000	4.95598	-0.00281351	0.334142	288.677
302.5000	5.14254	-0.00282816	0.339784	289.248
302.0000	5.27968	-0.00285784	0.345933	289.848
301.5000	5.34323	-0.00287725	0.352378	290.472
301.0000	5.37913	-0.00289714	0.358786	291.116
300.5000	5.22427	-0.00292566	0.364758	291.718
300.0000	5.23757	-0.00295202	0.37211	292.427
299.5000	5.35779	-0.00296745	0.37916	293.119
299.0000	5.51886	-0.00296979	0.386119	293.818
298.5000	5.53693	-0.00299891	0.393283	294.549
298.0000	5.38126	-0.00301723	0.400079	295.236
297.5000	5.38853	-0.00303963	0.407467	295.974
297.0000	5.39819	-0.00305989	0.414276	296.613
296.5000	5.36874	-0.0030628	0.420839	297.249
296.0000	5.39548	-0.00306774	0.427312	297.883
295.5000	5.18459	-0.00306774	0.433862	298.497
295.0000	5.21435	-0.00305013	0.440087	299.063
294.5000	5.21161	-0.00304403	0.44631	299.642
294.0000	4.96649	-0.00303567	0.452471	300.259
293.5000	4.83367	-0.00301292	0.457491	300.779
293.0000	4.66139	-0.00297487	0.462981	301.339
292.5000	4.56842	-0.002945	0.468395	301.912
292.0000	4.52836	-0.00290661	0.473421	302.461
291.5000	4.39548	-0.00288204	0.478482	303
291.0000	4.35543	-0.00283299	0.483414	303.525
290.5000	4.05926	-0.00279266	0.488658	304.075
290.0000	3.91985	-0.00273365	0.493859	304.601
289.5000	3.77931	-0.00268628	0.498453	305.098
289.0000	3.6742	-0.00262823	0.502996	305.597
288.5000	3.6827	-0.00256173	0.507998	306.153
288.0000	3.56617	-0.00249295	0.512688	306.683
287.5000	3.89959	-0.00244608	0.517666	307.254
287.0000	3.65834	-0.00240094	0.522692	307.87
286.5000	3.57816	-0.00235567	0.527361	308.473
286.0000	3.39364	-0.00230535	0.532234	309.06
285.5000	3.44372	-0.00225848	0.537418	309.627
285.0000	3.29034	-0.00221542	0.543049	310.244
284.5000	3.37916	-0.00217817	0.548158	310.812
284.0000	3.41417	-0.00212466	0.553486	311.402
283.5000	3.38122	-0.00205842	0.559093	312.008
283.0000	2.9994	-0.00202268	0.564685	312.617
282.5000	2.99519	-0.00196569	0.570766	313.273
282.0000	3.00672	-0.00189089	0.576599	313.94
281.5000	3.09809	-0.00185146	0.582346	314.601
281.0000	3.16019	-0.00178628	0.58835	315.269
280.5000	2.9005	-0.00173781	0.594849	316.013
280.0000	2.93515	-0.00166927	0.601641	316.784
279.5000	2.9616	-0.00162746	0.608719	317.596
279.0000	2.6418	-0.0015808	0.615565	318.394
278.5000	2.75102	-0.00151563	0.623023	319.252
278.0000	2.57044	-0.00146259	0.631732	320.199
277.5000	2.46083	-0.00139749	0.639847	321.085
277.0000	2.27389	-0.0013377	0.648558	322.066
276.5000	2.34374	-0.00125516	0.65754	323.092
276.0000	2.22184	-0.00118062	0.665908	324.042
275.5000	2.26747	-0.00112691	0.675877	325.143
275.0000	2.25492	-0.00106654	0.686251	326.296
274.5000	2.37595	-0.00100864	0.696791	327.491
274.0000	2.48262	-0.000953145	0.708295	328.826
273.5000	2.37253	-0.000926739	0.719569	330.098
273.0000	2.48543	-0.00085917	0.732093	331.507
272.5000	2.42077	-0.000793789	0.745117	332.985
272.0000	2.47646	-0.000736671	0.758624	334.537
271.5000	2.3532	-0.000674212	0.77353	336.253
271.0000	2.41057	-0.000631094	0.788534	337.952
270.5000	2.53993	-0.000563671	0.804577	339.752
270.0000	2.71726	-0.000489574	0.82089	341.626
269.5000	2.79377	-0.000451904	0.837864	343.618
269.0000	2.80716	-0.000397214	0.854935	345.612
268.5000	3.35991	-0.000338687	0.873876	347.818
268.0000	3.1738	-0.000327484	0.893957	350.152
267.5000	3.00511	-0.000274494	0.915063	352.622
267.0000	2.75707	-0.000235315	0.937946	355.349
266.5000	2.7345	-0.000209453	0.961557	358.198
266.0000	2.99413	-0.000173856	0.984093	360.88
265.5000	2.83214	-0.000105395	1.00878	363.802
265.0000	2.89278	-0.0001017	1.03503	366.975
264.5000	2.6099	-9.37523E-005	1.06042	370.092
264.0000	2.80603	-5.45493E-005	1.08633	373.293
263.5000	2.61891	-1.0941E-005	1.11441	376.751
263.0000	2.62625	-7.08985E-006	1.14025	379.957
262.5000	2.52432	5.16048E-005	1.16882	383.572
262.0000	2.41454	6.42364E-005	1.19628	387.116
261.5000	2.57769	7.3005E-005	1.22459	390.757
261.0000	2.68081	3.01106E-005	1.25215	394.273
260.5000	2.36419	1.92021E-005	1.28167	398.087
260.0000	2.12993	4.10408E-005	1.3117	402.012
259.5000	1.73765	3.32788E-005	1.34238	406.066
259.0000	1.7327	-1.25353E-005	1.3737	410.264
258.5000	1.49455	-2.99516E-005	1.40625	414.614
258.0000	1.48501	-2.70053E-005	1.44	419.153
257.5000	1.33459	-8.98542E-005	1.47307	423.63
257.0000	0.649325	-0.000123278	1.50937	428.582
256.5000	0.41722	-0.000117113	1.54543	433.527
256.0000	-0.0968478	-0.000147711	1.58521	439.002
255.5000	-0.419157	-0.000248491	1.62689	444.77
255.0000	-0.863507	-0.000254874	1.67042	450.859
254.5000	-0.26176	-0.00030733	1.71361	456.961
254.0000	-0.691184	-0.000451183	1.75877	463.391
253.5000	-0.615983	-0.00049763	1.81132	470.883
253.0000	-0.746517	-0.000629908	1.86068	478.033
252.5000	-0.30884	-0.000704212	1.93653	489.235
252.0000	-0.265999	-0.000872993	2.00222	499.072
251.5000	-0.636806	-0.0010151	2.0617	508.081
251.0000	-2.47464	-0.00107662	2.12368	517.547
250.5000	-3.84589	-0.00108576	2.18765	527.491
250.0000	-2.91131	-0.00111566	2.25038	537.41
249.5000	-3.27486	-0.00121625	2.31491	547.773
249.0000	-3.68922	-0.00133938	2.38491	559.182
248.5000	-4.1026	-0.00139169	2.45362	570.529
248.0000	-3.89638	-0.00142619	2.5281	583.045
247.5000	-3.70726	-0.00141489	2.6009	595.52
247.0000	-2.83478	-0.00169283	2.6797	609.286
246.5000	-2.25375	-0.00153661	2.76075	623.681
246.0000	-1.02828	-0.00138491	2.84347	638.63
245.5000	-1.99481	-0.00152385	2.93107	654.867
245.0000	-1.88615	-0.00151605	3.01969	671.644
244.5000	-1.90451	-0.00145734	3.10842	688.794
244.0000	-5.30147	-0.00125429	3.19629	706.187
243.5000	-9.79689	-0.00115177	3.27863	722.871
243.0000	-4.76109	-0.000783575	3.35872	739.496
242.5000	-1.10059	-0.00103155	3.44332	757.475
242.0000	2.79233	-0.00101225	3.51295	772.61
241.5000	-1.99954	-0.000779613	3.58573	788.772
241.0000	2.05808	-0.000223087	3.64743	802.775
240.5000	2.17692	-3.8204E-005	3.71004	817.395
240.0000	2.62273	-2.52541E-005	3.76171	829.745
239.5000	5.4941	6.64582E-005	3.81538	842.893
239.0000	1.2592	-4.67263E-005	3.85653	853.205
238.5000	0.899255	-0.000189774	3.89437	862.972
238.0000	-1.7201	-0.000185718	3.92777	871.983
237.5000	-2.9147	-2.97296E-005	3.95276	879.062
237.0000	-2.50483	0.000179564	3.97392	885.404
236.5000	-4.97357	0.000313184	3.99043	890.732
236.0000	-2.20239	0.000528395	4.00221	894.919
235.5000	0.550046	0.000501989	4.0111	898.763
235.0000	3.698	0.000373648	4.01454	900.811
234.5000	-0.552748	3.64049E-005	4.01639	902.571
234.0000	-5.14492	0.000183903	4.01692	904.114
233.5000	-7.06317	8.64462E-005	4.01566	905.382
233.0000	-3.75228	8.09767E-005	4.01276	906.383
232.5000	-5.02116	-0.000152183	4.00839	907.049
232.0000	-5.10337	-0.000342526	4.0019	907.573
231.5000	-4.64056	8.52593E-005	3.99586	907.91
231.0000	-10.3004	-1.48848E-006	3.98857	908.195
230.5000	-5.5607	-5.05183E-005	3.98026	908.351
230.0000	-2.08712	0.00067045	3.97176	908.477
229.5000	-2.59763	0.000788052	3.96258	908.571
229.0000	-1.48806	0.00053782	3.95301	908.637
228.5000	-2.29818	0.000603308	3.94363	908.742
228.0000	2.53103	0.000731168	3.93439	908.796
227.5000	1.48354	0.000718333	3.92406	908.848
227.0000	-0.00488773	0.000766383	3.91343	908.865
226.5000	-3.63114	0.00076056	3.90215	908.873
226.0000	-4.63436	0.000911492	3.89177	908.916
225.5000	-0.147608	0.00107117	3.88047	908.938
225.0000	-0.453158	0.00136977	3.8686	908.97
224.5000	0.432925	0.00170324	3.85627	908.964
224.0000	2.11607	0.00166388	3.84422	909.013
223.5000	2.42999	0.0015138	3.83236	909.042
223.0000	2.56161	0.0014638	3.82061	909.057
222.5000	4.76994	0.0013717	3.80618	909.107
222.0000	5.45137	0.00138708	3.79267	909.094
221.5000	2.89003	0.00141536	3.77851	909.098
221.0000	3.98501	0.00149881	3.76645	909.117
220.5000	0.091228	0.00151868	3.75425	909.131
220.0000	-2.553	0.0012357	3.74145	909.173

##### Extended Information
[Comments]
Sample name	JS187+JS190_5E-5_H2O_40-60_100EQDT+72H
Comment
User
Division
Company	Labo systeme complexes hors equilibre

[Detailed Information]
Creation date	1/26/2024 12:04 PM

Data array type	Linear data array * 4
Horizontal axis	Wavelength [nm]
Vertical axis(1)	CD [mdeg]
Vertical axis(2)	LD [dOD]
Vertical axis(3)	Abs
Vertical axis(4)	HT [V]
Start	700 nm
End	220 nm
Data interval	0.5 nm
Data points	961     

[Measurement Information]
Instrument name	CD Jasco
Model name	J-1500
Serial No.	A005261638

Detector	PM-539
Detector S/N	A0052PM539
  Lock-in amp.	X mode
  HT volt	Auto

Detector	EXPML-535
Detector S/N	A0001
  Lock-in amp.	X mode
  HT volt	Auto

Measurement date	1/26/2024 12:04 PM

Overload detect	1
Photometric mode	CD, LD, Abs, HT
Measure range	700 - 220 nm
Data pitch	0.5 nm
CD scale	200 mdeg/1.0 dOD
FL scale	200 mdeg/1.0 dOD
D.I.T.	1 sec
Bandwidth	1.00 nm
Start mode	Immediately
Scanning speed	500 nm/min
Baseline correction	Baseline
Shutter control	Auto


