TITLE	JS187+JS190_5E-5_H2O_20-80_100EQDT+72H
DATA TYPE	
ORIGIN	JASCO
OWNER	
DATE	24/01/26
TIME	11:17:49
SPECTROMETER/DATA SYSTEM	
LOCALE	1033
RESOLUTION	
DELTAX	-0.5
XUNITS	NANOMETERS
YUNITS	CD [mdeg]
Y2UNITS	LD [dOD]
Y3UNITS	ABSORBANCE
Y4UNITS	HT [V]
FIRSTX	  700.0000
LASTX	  220.0000
NPOINTS	     961
FIRSTY	     2.86412
MAXY	    21.40948
MINY	   -41.64315
XYDATA
700.0000	2.86412	-3.63126E-005	0.0250246	306.748
699.5000	2.54273	-4.26362E-005	0.0246387	306.504
699.0000	2.5125	-3.60148E-005	0.0240515	306.196
698.5000	2.62927	-1.62437E-005	0.0239252	305.846
698.0000	2.62942	-3.00952E-005	0.0233709	305.457
697.5000	2.45701	-1.11021E-005	0.0224084	305.053
697.0000	2.3399	3.83148E-006	0.0212557	304.614
696.5000	2.24696	9.05394E-006	0.0209086	304.168
696.0000	2.09708	1.92092E-005	0.021048	303.65
695.5000	2.21263	6.88401E-006	0.0211469	303.129
695.0000	2.31254	2.59187E-006	0.0216127	302.646
694.5000	2.01643	-2.57783E-006	0.0217278	302.149
694.0000	2.09434	-7.6871E-006	0.0228122	301.668
693.5000	1.99361	8.13815E-006	0.0240096	301.203
693.0000	1.86522	1.5555E-005	0.0260089	300.812
692.5000	1.58951	2.46114E-005	0.0278939	300.434
692.0000	1.64039	3.85755E-005	0.0297822	300.097
691.5000	1.72315	2.34521E-005	0.0319614	299.797
691.0000	1.75953	2.46429E-005	0.0341091	299.514
690.5000	1.7355	2.59359E-005	0.0356324	299.277
690.0000	1.87714	3.95825E-005	0.0368407	299.058
689.5000	1.87436	3.63137E-005	0.0379812	298.856
689.0000	1.82112	3.2961E-005	0.0395158	298.674
688.5000	1.92489	2.98438E-005	0.0407471	298.544
688.0000	1.8658	4.96496E-005	0.0425842	298.499
687.5000	1.8148	6.34562E-005	0.0449646	298.554
687.0000	1.74336	6.53301E-005	0.047266	298.68
686.5000	1.70713	6.80835E-005	0.0493105	298.872
686.0000	1.78745	5.67255E-005	0.050329	299.1
685.5000	2.01076	5.29525E-005	0.0506328	299.365
685.0000	1.78045	3.28074E-005	0.0505707	299.63
684.5000	1.73439	2.08905E-005	0.0499009	299.882
684.0000	1.9639	2.71569E-005	0.0487088	300.122
683.5000	2.01547	3.30848E-005	0.0478614	300.356
683.0000	2.19826	3.68759E-005	0.0469269	300.596
682.5000	2.14829	3.05795E-005	0.0464977	300.838
682.0000	2.49517	2.42591E-005	0.0458039	301.093
681.5000	2.52639	2.15222E-005	0.04584	301.369
681.0000	2.54253	4.32697E-005	0.0459472	301.665
680.5000	2.82047	4.51636E-005	0.0462865	301.959
680.0000	2.89609	4.91185E-005	0.0455969	302.225
679.5000	2.9245	3.98781E-005	0.044437	302.439
679.0000	2.85833	5.0151E-005	0.0418745	302.566
678.5000	2.85847	4.74605E-005	0.0402235	302.645
678.0000	3.08821	6.17269E-005	0.0384549	302.672
677.5000	3.12885	7.24918E-005	0.0373677	302.673
677.0000	3.14553	8.85264E-005	0.0368324	302.653
676.5000	3.46244	9.72142E-005	0.0370416	302.633
676.0000	3.3261	0.000105193	0.0372251	302.607
675.5000	3.25921	0.000100674	0.0374044	302.581
675.0000	3.10254	9.36507E-005	0.0378145	302.562
674.5000	2.97914	9.54905E-005	0.038629	302.551
674.0000	2.71833	0.000119844	0.0395762	302.554
673.5000	2.76047	0.000129108	0.0404831	302.555
673.0000	2.69405	0.000134858	0.0403513	302.551
672.5000	2.44035	0.000125614	0.0403263	302.568
672.0000	2.44579	0.000143725	0.0405997	302.591
671.5000	2.34295	0.000149774	0.0414029	302.621
671.0000	2.22208	0.000130056	0.0422689	302.659
670.5000	2.43723	0.000149904	0.0434359	302.709
670.0000	2.24843	0.000163921	0.0443978	302.762
669.5000	2.43829	0.000170502	0.0448592	302.821
669.0000	2.20731	0.000179811	0.0453061	302.877
668.5000	2.3448	0.000169809	0.045772	302.939
668.0000	2.28869	0.000156637	0.0460491	303.016
667.5000	2.38376	0.000160799	0.0462959	303.106
667.0000	2.3958	0.000174128	0.0463393	303.204
666.5000	2.3754	0.000160828	0.0463028	303.293
666.0000	2.46424	0.00017559	0.0455191	303.388
665.5000	2.4194	0.000152636	0.0451588	303.482
665.0000	2.43638	0.000141469	0.0457484	303.591
664.5000	2.67645	0.000150435	0.0466008	303.696
664.0000	2.60206	0.000145245	0.0467264	303.797
663.5000	2.52591	0.000138714	0.0458661	303.897
663.0000	2.8223	0.000132719	0.0456546	303.978
662.5000	2.81721	0.000155016	0.0454763	304.068
662.0000	2.95394	0.000129764	0.0451957	304.143
661.5000	2.79593	0.000121941	0.0453544	304.197
661.0000	2.90546	0.000120909	0.0452136	304.248
660.5000	2.6434	0.000143329	0.0447273	304.275
660.0000	2.96401	0.00015249	0.0444642	304.289
659.5000	3.00913	0.000178207	0.0438125	304.297
659.0000	3.12736	0.000161848	0.0433586	304.288
658.5000	3.0377	0.000156537	0.0430337	304.257
658.0000	3.04685	0.000159685	0.0431423	304.216
657.5000	3.33577	0.000160033	0.042666	304.153
657.0000	3.15435	0.000162945	0.0430718	304.072
656.5000	3.0687	0.000174459	0.0422648	303.958
656.0000	3.05411	0.0001777	0.041586	303.832
655.5000	3.1776	0.000170341	0.0422272	303.681
655.0000	2.98367	0.000188314	0.0421844	303.516
654.5000	3.04323	0.000197336	0.0414108	303.331
654.0000	2.9351	0.000201771	0.0412452	303.125
653.5000	2.99943	0.000198895	0.0417787	302.928
653.0000	3.09163	0.000204624	0.042551	302.734
652.5000	3.12211	0.00020668	0.043335	302.568
652.0000	3.30065	0.000197291	0.0443462	302.433
651.5000	3.12862	0.000201534	0.045865	302.328
651.0000	2.80987	0.000179399	0.0476916	302.236
650.5000	2.60384	0.000210205	0.0487727	302.17
650.0000	2.79941	0.000205687	0.0504708	302.148
649.5000	2.57739	0.000209719	0.0515032	302.138
649.0000	2.6657	0.000215728	0.0528546	302.158
648.5000	2.88979	0.000201244	0.0533614	302.208
648.0000	3.00787	0.000211869	0.0542335	302.284
647.5000	3.09618	0.000222259	0.0549758	302.372
647.0000	3.15284	0.000216848	0.0553022	302.495
646.5000	3.23342	0.000200712	0.0555763	302.633
646.0000	3.03366	0.000175953	0.0569515	302.794
645.5000	3.05252	0.000193299	0.0574425	302.943
645.0000	3.02498	0.000203532	0.0567963	303.08
644.5000	2.86507	0.000220381	0.0565948	303.213
644.0000	3.03713	0.000229186	0.0565888	303.326
643.5000	3.0867	0.00023835	0.0561415	303.409
643.0000	3.27369	0.000238534	0.0556646	303.461
642.5000	3.66274	0.00024826	0.0554624	303.51
642.0000	3.82438	0.000271083	0.0553359	303.529
641.5000	3.83532	0.000262382	0.0549764	303.519
641.0000	3.90903	0.000258431	0.0550612	303.503
640.5000	3.8462	0.000279522	0.0555542	303.476
640.0000	3.88567	0.000290692	0.0562019	303.429
639.5000	3.82264	0.000293333	0.0570351	303.358
639.0000	3.86974	0.000305952	0.0576234	303.279
638.5000	3.80519	0.000293776	0.0586325	303.187
638.0000	3.92068	0.000311273	0.0590689	303.095
637.5000	4.017	0.00031085	0.0593447	303.004
637.0000	4.1401	0.000308098	0.0605613	302.919
636.5000	4.2009	0.000275963	0.0614294	302.829
636.0000	4.19427	0.000249114	0.0616885	302.748
635.5000	4.25939	0.000241103	0.0621671	302.68
635.0000	4.09274	0.000259732	0.0631008	302.619
634.5000	3.90237	0.000258243	0.063815	302.552
634.0000	3.66318	0.000244673	0.0645293	302.495
633.5000	3.54066	0.000240014	0.0648433	302.44
633.0000	3.58494	0.000249786	0.0656206	302.382
632.5000	3.3079	0.000237065	0.0656503	302.314
632.0000	3.17004	0.000220898	0.0658371	302.261
631.5000	3.23305	0.00022008	0.0663858	302.215
631.0000	3.40053	0.000233756	0.0670439	302.185
630.5000	3.54682	0.000230443	0.0676683	302.152
630.0000	3.53306	0.000249685	0.0683967	302.122
629.5000	3.67968	0.000259913	0.06916	302.082
629.0000	3.64754	0.000268627	0.0696879	302.042
628.5000	3.52459	0.00026569	0.0700758	302.008
628.0000	3.54247	0.000294385	0.0706249	301.963
627.5000	3.57795	0.000326634	0.0714305	301.91
627.0000	3.38106	0.000324732	0.0715652	301.842
626.5000	3.50217	0.000307981	0.0714646	301.781
626.0000	3.47074	0.000308041	0.0714502	301.72
625.5000	3.6148	0.000307825	0.0721319	301.666
625.0000	3.5321	0.000303458	0.0730154	301.625
624.5000	3.73863	0.000297956	0.0739727	301.594
624.0000	3.91325	0.000314054	0.0747091	301.562
623.5000	3.86122	0.000335723	0.0755564	301.546
623.0000	3.78744	0.000328298	0.0764094	301.545
622.5000	3.6583	0.00032094	0.0772334	301.539
622.0000	3.44164	0.000319817	0.0780118	301.566
621.5000	3.59229	0.000308323	0.0788469	301.604
621.0000	3.49294	0.000297804	0.0796465	301.644
620.5000	3.38616	0.000302444	0.0800891	301.686
620.0000	3.41123	0.000298053	0.0805123	301.749
619.5000	3.42065	0.000294283	0.0813058	301.838
619.0000	3.38091	0.000275638	0.0825337	301.942
618.5000	3.56817	0.000261956	0.0843233	302.075
618.0000	3.36922	0.000273342	0.0860801	302.206
617.5000	3.69736	0.000281126	0.0868445	302.346
617.0000	3.77407	0.000312515	0.0872936	302.488
616.5000	3.86811	0.000315458	0.0877803	302.629
616.0000	4.04004	0.000311927	0.0886813	302.767
615.5000	3.98268	0.000296411	0.0893296	302.918
615.0000	3.97241	0.000304136	0.0898648	303.067
614.5000	4.12744	0.000300587	0.0901879	303.213
614.0000	4.26047	0.000286021	0.0905542	303.36
613.5000	4.1477	0.000292345	0.0910136	303.494
613.0000	4.12589	0.000318115	0.0914851	303.644
612.5000	4.08759	0.000310761	0.0921144	303.801
612.0000	4.33634	0.000327626	0.0928347	303.954
611.5000	4.16482	0.000334362	0.0937268	304.094
611.0000	4.29059	0.000336834	0.0941189	304.236
610.5000	4.38967	0.000341904	0.0944338	304.378
610.0000	4.49215	0.000345073	0.0944943	304.502
609.5000	4.44681	0.000338797	0.0952807	304.634
609.0000	4.25197	0.000340621	0.0959126	304.748
608.5000	4.06298	0.000324936	0.0968839	304.859
608.0000	3.9286	0.000353228	0.0974323	304.96
607.5000	3.72758	0.000337824	0.0977208	305.075
607.0000	3.92976	0.000339319	0.0982663	305.18
606.5000	3.92797	0.000333588	0.0989613	305.287
606.0000	3.88947	0.000347348	0.100251	305.383
605.5000	3.48556	0.000342126	0.101169	305.473
605.0000	3.43162	0.000346848	0.10244	305.562
604.5000	3.52182	0.000349971	0.103338	305.638
604.0000	3.15403	0.000342481	0.104516	305.713
603.5000	3.04319	0.000318655	0.105795	305.781
603.0000	3.20513	0.000324169	0.106687	305.851
602.5000	3.27263	0.000326924	0.107995	305.916
602.0000	3.42728	0.00031123	0.109423	305.974
601.5000	3.24925	0.000312763	0.110753	306.036
601.0000	3.10747	0.000311346	0.112138	306.103
600.5000	3.26162	0.000313179	0.114022	306.165
600.0000	3.05249	0.000295846	0.115589	306.22
599.5000	2.87232	0.000300946	0.118059	306.276
599.0000	2.91634	0.00031884	0.119873	306.304
598.5000	2.80142	0.000319019	0.122041	306.307
598.0000	2.74645	0.00032311	0.123927	306.324
597.5000	2.80216	0.000336243	0.125625	306.34
597.0000	2.79311	0.000335107	0.127645	306.358
596.5000	2.60669	0.000316088	0.129788	306.363
596.0000	2.78942	0.000322239	0.131855	306.355
595.5000	2.65288	0.000310713	0.13393	306.364
595.0000	2.46311	0.000314825	0.136154	306.348
594.5000	2.40045	0.000323569	0.138538	306.348
594.0000	2.46264	0.000343099	0.140403	306.35
593.5000	2.33229	0.000351258	0.142837	306.351
593.0000	2.3198	0.000351899	0.145493	306.342
592.5000	2.23211	0.000355955	0.147725	306.358
592.0000	1.99814	0.000373425	0.149886	306.39
591.5000	1.91381	0.000360782	0.151726	306.42
591.0000	1.8131	0.000377187	0.15413	306.459
590.5000	1.59331	0.000360987	0.156424	306.529
590.0000	1.43799	0.000336337	0.158964	306.613
589.5000	1.27103	0.000341235	0.161664	306.698
589.0000	1.06952	0.000350682	0.164397	306.791
588.5000	0.913727	0.000364384	0.16695	306.891
588.0000	0.769241	0.00036373	0.169961	307.02
587.5000	0.476903	0.000370771	0.173235	307.191
587.0000	0.388506	0.000375414	0.176504	307.398
586.5000	-0.244786	0.00036984	0.17959	307.596
586.0000	-1.04961	0.000380977	0.183102	307.785
585.5000	-1.40345	0.000360254	0.186397	308.005
585.0000	-1.78375	0.0003611	0.189595	308.232
584.5000	-2.10624	0.000363882	0.192775	308.458
584.0000	-2.71624	0.000342659	0.196544	308.717
583.5000	-3.09759	0.000340486	0.200519	308.994
583.0000	-3.65437	0.000324348	0.205039	309.301
582.5000	-4.15635	0.000330361	0.209233	309.618
582.0000	-4.80246	0.000344889	0.213508	309.938
581.5000	-5.36149	0.000357542	0.2182	310.303
581.0000	-6.10969	0.000352807	0.22335	310.689
580.5000	-6.65465	0.000339808	0.228629	311.092
580.0000	-7.31354	0.000348847	0.23378	311.503
579.5000	-8.07728	0.000328778	0.238797	311.916
579.0000	-9.03357	0.000328184	0.243829	312.319
578.5000	-9.53819	0.000320907	0.249436	312.738
578.0000	-10.0334	0.000324143	0.255062	313.189
577.5000	-10.7837	0.000321921	0.260642	313.693
577.0000	-11.8826	0.000340966	0.266962	314.184
576.5000	-12.8581	0.000339422	0.273924	314.732
576.0000	-13.7321	0.000333288	0.280605	315.259
575.5000	-14.597	0.000331137	0.287741	315.817
575.0000	-15.4966	0.000339574	0.293992	316.345
574.5000	-16.6693	0.000336426	0.301073	316.924
574.0000	-17.5849	0.000332779	0.308369	317.496
573.5000	-18.6421	0.000333468	0.315722	318.086
573.0000	-19.8441	0.000323968	0.323117	318.727
572.5000	-20.9422	0.000300818	0.330003	319.328
572.0000	-21.9564	0.000288518	0.337745	320.019
571.5000	-23.3974	0.000267235	0.345531	320.693
571.0000	-24.6639	0.000250673	0.354368	321.414
570.5000	-25.9753	0.000248638	0.363003	322.17
570.0000	-27.1173	0.000232534	0.371244	322.9
569.5000	-28.525	0.000228453	0.380465	323.665
569.0000	-30.0565	0.000228063	0.389583	324.417
568.5000	-31.1903	0.000197639	0.397842	325.15
568.0000	-32.3556	0.000186678	0.406035	325.906
567.5000	-33.6207	0.000197993	0.414307	326.662
567.0000	-34.9384	0.000177047	0.422795	327.404
566.5000	-35.7992	0.000146813	0.43112	328.113
566.0000	-36.7858	0.00012715	0.439321	328.809
565.5000	-37.5741	0.000116187	0.447144	329.504
565.0000	-38.3483	0.000126633	0.454834	330.152
564.5000	-38.9905	0.00012618	0.462614	330.803
564.0000	-39.6287	0.000110826	0.469874	331.374
563.5000	-40.0145	9.97129E-005	0.476542	331.921
563.0000	-40.4225	0.000114884	0.48293	332.468
562.5000	-40.6567	0.000107971	0.488806	332.943
562.0000	-40.9864	0.000112971	0.494476	333.392
561.5000	-41.6431	8.8947E-005	0.500732	333.852
561.0000	-41.4243	6.07468E-005	0.506265	334.279
560.5000	-41.2778	5.42844E-005	0.511195	334.657
560.0000	-41.1885	5.80967E-005	0.516183	335.013
559.5000	-40.9792	4.36061E-005	0.52098	335.306
559.0000	-40.424	6.11487E-005	0.525009	335.545
558.5000	-39.9948	7.04191E-005	0.528179	335.734
558.0000	-39.5087	8.09266E-005	0.530751	335.873
557.5000	-38.8401	9.25234E-005	0.533381	335.984
557.0000	-38.3225	0.000101903	0.535641	336.044
556.5000	-38.0241	8.15779E-005	0.537162	336.077
556.0000	-37.2295	9.36157E-005	0.537723	336.064
555.5000	-36.6219	7.83231E-005	0.538456	336.034
555.0000	-35.7689	7.40062E-005	0.538918	335.957
554.5000	-34.8434	6.92328E-005	0.539355	335.837
554.0000	-33.9831	5.58589E-005	0.539021	335.697
553.5000	-33.1367	6.78986E-005	0.538345	335.521
553.0000	-32.3	7.56743E-005	0.537462	335.333
552.5000	-31.8208	8.0156E-005	0.536905	335.128
552.0000	-31.0534	6.03764E-005	0.53603	334.885
551.5000	-30.7261	3.25335E-005	0.534994	334.638
551.0000	-30.0051	3.38983E-005	0.533591	334.396
550.5000	-29.5901	8.85596E-006	0.531942	334.113
550.0000	-29.1438	1.7627E-005	0.530547	333.828
549.5000	-28.5902	2.74066E-005	0.529268	333.537
549.0000	-28.1542	1.68132E-005	0.527434	333.249
548.5000	-27.6078	1.9316E-005	0.525576	332.971
548.0000	-27.2172	6.50442E-006	0.524713	332.673
547.5000	-27.016	1.34738E-005	0.523891	332.403
547.0000	-26.8974	2.47205E-005	0.523002	332.106
546.5000	-26.5862	4.108E-005	0.521974	331.859
546.0000	-26.4367	3.45213E-005	0.520521	331.639
545.5000	-26.0789	5.72156E-005	0.520034	331.409
545.0000	-26.1011	5.42362E-005	0.519561	331.226
544.5000	-25.8099	5.72934E-005	0.519165	331.04
544.0000	-25.5858	7.6805E-005	0.51844	330.866
543.5000	-25.6323	9.73101E-005	0.518147	330.723
543.0000	-25.5967	0.000124406	0.518136	330.594
542.5000	-25.831	0.000122515	0.518522	330.475
542.0000	-26.0638	0.000138213	0.518779	330.377
541.5000	-26.0504	0.000119202	0.519097	330.305
541.0000	-26.4672	9.21529E-005	0.519348	330.248
540.5000	-26.7831	8.95769E-005	0.520486	330.209
540.0000	-26.9678	9.5628E-005	0.52183	330.175
539.5000	-27.3294	9.50584E-005	0.523007	330.176
539.0000	-27.7935	9.96205E-005	0.524137	330.207
538.5000	-28.1017	9.01751E-005	0.525677	330.26
538.0000	-28.4039	8.51891E-005	0.527624	330.312
537.5000	-28.9071	8.72407E-005	0.529762	330.394
537.0000	-29.4381	6.6434E-005	0.531902	330.499
536.5000	-29.9702	5.57463E-005	0.534348	330.619
536.0000	-30.5711	3.67921E-005	0.537172	330.76
535.5000	-30.827	4.23226E-005	0.540076	330.918
535.0000	-31.2591	4.78851E-005	0.543343	331.095
534.5000	-31.6225	3.30171E-005	0.546411	331.264
534.0000	-31.6807	4.34911E-005	0.549814	331.471
533.5000	-32.2358	3.93729E-005	0.553231	331.701
533.0000	-32.7283	3.71763E-005	0.556328	331.909
532.5000	-32.8337	3.06344E-005	0.559622	332.143
532.0000	-33.0419	3.17133E-005	0.563293	332.403
531.5000	-32.9483	4.09335E-005	0.567226	332.675
531.0000	-32.9849	2.26774E-005	0.57182	332.953
530.5000	-32.8818	1.22242E-005	0.575948	333.223
530.0000	-33.2186	2.74709E-005	0.580245	333.529
529.5000	-33.1168	1.85512E-005	0.584305	333.81
529.0000	-33.3248	1.66978E-005	0.588341	334.061
528.5000	-33.0532	3.12655E-005	0.592217	334.317
528.0000	-32.7109	3.1086E-005	0.596039	334.572
527.5000	-32.7628	2.88851E-005	0.600017	334.816
527.0000	-32.5656	1.83269E-005	0.604384	335.086
526.5000	-32.2047	1.59222E-007	0.608127	335.329
526.0000	-31.7591	-1.07024E-005	0.612288	335.583
525.5000	-31.0466	-1.76376E-005	0.616299	335.819
525.0000	-30.3901	-5.35897E-006	0.620274	336.057
524.5000	-29.6394	1.4853E-005	0.623982	336.255
524.0000	-28.913	1.67723E-005	0.627428	336.433
523.5000	-28.3699	1.50072E-005	0.630511	336.607
523.0000	-27.7796	5.02026E-006	0.633367	336.757
522.5000	-26.9166	2.3552E-005	0.635891	336.901
522.0000	-26.1032	2.62334E-005	0.638828	337.059
521.5000	-25.3775	1.31894E-005	0.641747	337.192
521.0000	-24.7096	2.43381E-005	0.644335	337.31
520.5000	-23.5252	4.98001E-005	0.646896	337.428
520.0000	-22.6834	5.58884E-005	0.649085	337.518
519.5000	-21.9938	5.97566E-005	0.651422	337.596
519.0000	-21.2295	9.51883E-005	0.653602	337.684
518.5000	-20.2921	0.000106583	0.655352	337.762
518.0000	-19.1275	0.000129767	0.657316	337.826
517.5000	-18.4134	0.000140878	0.659436	337.898
517.0000	-17.4237	0.000163618	0.661664	337.957
516.5000	-16.2726	0.000166738	0.663978	338.021
516.0000	-15.4313	0.000152158	0.666222	338.101
515.5000	-14.8466	0.000158293	0.668137	338.195
515.0000	-14.2125	0.000161546	0.669999	338.273
514.5000	-13.4917	0.000186161	0.671832	338.361
514.0000	-13.2765	0.000182908	0.67348	338.422
513.5000	-12.51	0.000208471	0.675349	338.496
513.0000	-11.8874	0.000217993	0.67685	338.57
512.5000	-11.317	0.000227243	0.678965	338.68
512.0000	-10.8686	0.000216492	0.681055	338.783
511.5000	-10.2183	0.000206012	0.682761	338.884
511.0000	-9.44781	0.000194497	0.684492	338.97
510.5000	-9.08106	0.000168666	0.686358	339.044
510.0000	-8.73206	0.000177238	0.688294	339.129
509.5000	-8.23643	0.000175173	0.690031	339.208
509.0000	-7.67398	0.00017938	0.691604	339.284
508.5000	-7.58112	0.000160865	0.693041	339.336
508.0000	-6.7818	0.000180032	0.694525	339.359
507.5000	-6.44949	0.000191048	0.695933	339.365
507.0000	-5.86717	0.00017689	0.697537	339.386
506.5000	-5.62756	0.000163134	0.699249	339.423
506.0000	-4.92681	0.000171423	0.700488	339.453
505.5000	-4.25114	0.000176319	0.701629	339.471
505.0000	-3.78723	0.000164511	0.702834	339.488
504.5000	-3.05159	0.000159879	0.703999	339.487
504.0000	-2.41523	0.000157306	0.704725	339.446
503.5000	-1.77725	0.000141824	0.70516	339.381
503.0000	-1.31957	0.000154418	0.705764	339.317
502.5000	-0.817252	0.000159972	0.705959	339.23
502.0000	-0.484961	0.000158278	0.706114	339.146
501.5000	-0.230315	0.000145841	0.706016	339.016
501.0000	0.0947247	0.000157229	0.705921	338.874
500.5000	0.543684	0.00015811	0.705757	338.7
500.0000	1.13463	0.000173707	0.705389	338.489
499.5000	1.2205	0.000167502	0.704392	338.236
499.0000	1.78576	0.000156795	0.703087	337.883
498.5000	2.36441	0.000172298	0.701583	337.429
498.0000	2.93753	0.000185301	0.699703	336.85
497.5000	3.80957	0.000179049	0.69797	336.127
497.0000	4.49038	0.000188868	0.696559	335.344
496.5000	4.71194	0.000198696	0.695074	334.484
496.0000	5.24501	0.000211325	0.694264	333.748
495.5000	5.63775	0.000235528	0.69391	333.188
495.0000	6.02703	0.000217215	0.692998	332.783
494.5000	6.66551	0.000220571	0.691357	332.407
494.0000	7.18976	0.000211843	0.689636	332.069
493.5000	7.8767	0.000234693	0.687558	331.692
493.0000	8.49386	0.000224838	0.68579	331.36
492.5000	9.18604	0.000228403	0.683993	331.028
492.0000	9.95934	0.000225945	0.681913	330.681
491.5000	10.7102	0.000239119	0.679791	330.374
491.0000	11.4411	0.000244946	0.677812	330.081
490.5000	12.1629	0.000256287	0.675832	329.825
490.0000	12.7372	0.000234104	0.67389	329.623
489.5000	13.1761	0.000237134	0.671885	329.475
489.0000	13.7282	0.000236444	0.669655	329.331
488.5000	14.4081	0.000249301	0.667233	329.184
488.0000	15.0103	0.000231814	0.664104	328.895
487.5000	15.7401	0.000237364	0.660476	328.4
487.0000	16.3697	0.00024546	0.657486	327.78
486.5000	17.0579	0.000269644	0.654332	327.026
486.0000	17.4785	0.000283876	0.651334	326.241
485.5000	17.8835	0.000278606	0.649187	325.431
485.0000	18.2784	0.000273471	0.647512	324.671
484.5000	18.7629	0.000279952	0.645461	324.048
484.0000	19.0868	0.000261532	0.643047	323.519
483.5000	19.4571	0.000256406	0.640712	323.082
483.0000	19.5632	0.00026441	0.637876	322.675
482.5000	19.8351	0.000246765	0.634906	322.338
482.0000	20.1562	0.000254864	0.631701	322.035
481.5000	20.1444	0.000274845	0.628669	321.746
481.0000	20.4409	0.000279887	0.625843	321.485
480.5000	20.6138	0.000278412	0.62283	321.249
480.0000	20.686	0.000270238	0.619575	321.03
479.5000	20.6995	0.000273678	0.616282	320.816
479.0000	20.8318	0.000258345	0.611983	320.532
478.5000	20.8566	0.000241271	0.607541	320.06
478.0000	20.9726	0.000219584	0.603567	319.298
477.5000	20.8928	0.000221191	0.601331	318.55
477.0000	20.9291	0.000228417	0.599282	317.994
476.5000	21.0849	0.000222196	0.595369	317.513
476.0000	21.1785	0.000230313	0.590742	316.905
475.5000	21.4095	0.000241664	0.585743	316.068
475.0000	21.1709	0.000221752	0.580605	315.018
474.5000	21.2832	0.000239933	0.576249	313.873
474.0000	21.1696	0.000235445	0.572354	312.607
473.5000	21.0637	0.000239559	0.568136	311.145
473.0000	21.0812	0.000230962	0.563805	309.524
472.5000	20.9337	0.000233242	0.560169	307.76
472.0000	20.6861	0.000245798	0.558023	306.215
471.5000	20.645	0.000267681	0.556336	304.969
471.0000	20.4075	0.000266289	0.554839	304.23
470.5000	20.3862	0.000291552	0.552752	303.718
470.0000	20.199	0.000300386	0.550599	303.558
469.5000	20.1579	0.000288363	0.547265	303.569
469.0000	19.9309	0.000272853	0.541279	303.367
468.5000	19.8883	0.000263408	0.534868	302.742
468.0000	19.4432	0.000252519	0.529811	301.932
467.5000	19.1393	0.000247971	0.526033	301.213
467.0000	19.0303	0.000247172	0.523213	300.677
466.5000	18.8787	0.000255156	0.520922	300.35
466.0000	18.5711	0.000253235	0.517935	300.207
465.5000	18.1545	0.000242533	0.514491	300.26
465.0000	18.1063	0.000238399	0.51056	300.559
464.5000	17.8965	0.000233879	0.505543	301.044
464.0000	17.5419	0.000211182	0.499379	301.494
463.5000	17.5045	0.0001978	0.492258	301.66
463.0000	17.2242	0.000189286	0.485325	301.494
462.5000	17.0078	0.000175195	0.479437	301.122
462.0000	16.509	0.000168225	0.474611	300.689
461.5000	16.3535	0.000172128	0.470002	300.299
461.0000	16.1935	0.000170761	0.465496	300.025
460.5000	15.6519	0.000152886	0.460705	299.871
460.0000	15.5827	0.00017712	0.456204	299.827
459.5000	15.1193	0.000161389	0.451232	299.826
459.0000	14.9241	0.000180661	0.445736	299.822
458.5000	14.8324	0.00018615	0.439682	299.723
458.0000	14.4037	0.000176216	0.433489	299.51
457.5000	14.2296	0.000172906	0.427307	299.099
457.0000	14.0466	0.00018757	0.421206	298.472
456.5000	13.5323	0.000198504	0.41621	297.829
456.0000	13.1382	0.000198719	0.411045	297.281
455.5000	12.8658	0.000204323	0.40469	296.647
455.0000	12.3416	0.000200365	0.398497	295.851
454.5000	12.0909	0.000200079	0.393391	295.027
454.0000	11.8587	0.000205233	0.388891	294.425
453.5000	11.8643	0.000204655	0.383713	294.055
453.0000	11.4701	0.000212351	0.378202	293.722
452.5000	11.285	0.000232927	0.372794	293.355
452.0000	10.9777	0.000255238	0.367554	292.944
451.5000	10.7194	0.000235702	0.362075	292.515
451.0000	10.7956	0.000250811	0.356922	292.107
450.5000	10.25	0.000242357	0.351379	291.648
450.0000	9.8824	0.00022629	0.346476	291.2
449.5000	9.71064	0.000219753	0.341971	290.821
449.0000	9.45073	0.000227932	0.337982	290.609
448.5000	8.95822	0.000224701	0.333248	290.473
448.0000	8.88068	0.000234481	0.328009	290.231
447.5000	8.63241	0.000229921	0.323451	289.925
447.0000	8.33136	0.000231782	0.319994	289.78
446.5000	8.18297	0.000251545	0.316582	289.855
446.0000	7.97821	0.000248791	0.311415	289.897
445.5000	7.53622	0.000242401	0.306069	289.658
445.0000	7.22079	0.000252182	0.301332	289.208
444.5000	6.91681	0.000236855	0.296745	288.697
444.0000	6.79672	0.000247797	0.292321	288.175
443.5000	6.56772	0.000250049	0.287788	287.576
443.0000	6.33886	0.000254476	0.283974	287.031
442.5000	6.07363	0.000257824	0.280556	286.529
442.0000	5.96784	0.000253239	0.277255	286.11
441.5000	5.86129	0.000254162	0.273515	285.681
441.0000	5.72879	0.000270731	0.270025	285.292
440.5000	5.44978	0.000267672	0.266678	284.919
440.0000	5.41821	0.000260601	0.263065	284.526
439.5000	5.26806	0.000246237	0.259291	284.125
439.0000	5.09137	0.000247901	0.255221	283.704
438.5000	4.93268	0.00026186	0.251073	283.297
438.0000	4.6178	0.000254204	0.246788	282.896
437.5000	4.6362	0.000261224	0.242874	282.52
437.0000	4.66826	0.00025437	0.238645	282.134
436.5000	4.74701	0.000262501	0.23536	281.8
436.0000	4.64913	0.000264689	0.232297	281.503
435.5000	4.54638	0.00026113	0.228868	281.237
435.0000	4.38431	0.000273071	0.225267	280.991
434.5000	4.35751	0.000283593	0.221626	280.745
434.0000	4.25915	0.0002709	0.218104	280.476
433.5000	4.06431	0.00028875	0.214801	280.197
433.0000	3.96096	0.000285624	0.211798	279.896
432.5000	3.88745	0.000288647	0.208803	279.59
432.0000	3.72603	0.000292949	0.205452	279.257
431.5000	3.66647	0.000287586	0.202279	278.93
431.0000	3.74792	0.000287984	0.199217	278.599
430.5000	3.77074	0.000291391	0.196332	278.273
430.0000	3.75345	0.000293161	0.193772	277.963
429.5000	3.65159	0.000295812	0.190939	277.633
429.0000	3.45282	0.000293171	0.188159	277.303
428.5000	3.32365	0.00030082	0.185296	276.973
428.0000	3.19996	0.000293793	0.182053	276.635
427.5000	3.00907	0.000284281	0.17943	276.331
427.0000	2.89172	0.000285893	0.17694	276.029
426.5000	2.87691	0.000273632	0.174638	275.735
426.0000	2.63578	0.000281094	0.17219	275.41
425.5000	2.70421	0.000288128	0.169981	275.066
425.0000	2.64837	0.000284916	0.167452	274.686
424.5000	2.61358	0.000280907	0.164963	274.277
424.0000	2.67651	0.000276497	0.162615	273.863
423.5000	2.70411	0.000272924	0.160903	273.51
423.0000	2.55922	0.000269763	0.159024	273.205
422.5000	2.39911	0.000275745	0.157124	272.957
422.0000	2.31814	0.000262327	0.154951	272.713
421.5000	2.324	0.00026214	0.152894	272.488
421.0000	2.39459	0.000269592	0.151094	272.281
420.5000	2.43091	0.000276084	0.149149	272.065
420.0000	2.35759	0.000286953	0.147376	271.85
419.5000	2.22977	0.000294822	0.145817	271.635
419.0000	2.38419	0.000300114	0.144162	271.422
418.5000	2.3567	0.000298001	0.142355	271.232
418.0000	2.2964	0.000313128	0.140912	271.051
417.5000	2.41368	0.000312179	0.139282	270.873
417.0000	2.16987	0.000313692	0.138005	270.712
416.5000	2.17847	0.00032409	0.136934	270.604
416.0000	2.08409	0.000323349	0.135698	270.545
415.5000	2.02471	0.000337999	0.134349	270.49
415.0000	1.98606	0.000341879	0.132795	270.381
414.5000	1.97226	0.00034294	0.13165	270.236
414.0000	1.98405	0.000348456	0.130914	270.084
413.5000	1.98875	0.000370322	0.130113	269.909
413.0000	1.8223	0.000361067	0.129335	269.75
412.5000	1.7716	0.000351744	0.128601	269.618
412.0000	1.80361	0.000348567	0.127976	269.505
411.5000	1.8747	0.000364165	0.127017	269.385
411.0000	1.87727	0.000352544	0.126275	269.289
410.5000	1.7618	0.000352331	0.125744	269.203
410.0000	1.72301	0.000343734	0.125372	269.132
409.5000	1.59324	0.000336539	0.125011	269.073
409.0000	1.53077	0.00032953	0.124516	269.021
408.5000	1.531	0.000329252	0.123895	268.986
408.0000	1.50937	0.000331673	0.123226	268.959
407.5000	1.68677	0.000323272	0.122473	268.92
407.0000	1.7635	0.000307843	0.121919	268.871
406.5000	1.71321	0.000304594	0.121516	268.821
406.0000	1.73176	0.000304836	0.121094	268.765
405.5000	1.58203	0.000299027	0.120462	268.697
405.0000	1.60401	0.000287902	0.120058	268.626
404.5000	1.69193	0.000288418	0.11971	268.54
404.0000	1.47718	0.000278346	0.119576	268.418
403.5000	1.33177	0.000273866	0.119363	268.266
403.0000	1.30685	0.000271766	0.119627	268.112
402.5000	1.35594	0.000273201	0.119446	267.935
402.0000	1.37687	0.000271045	0.119691	267.768
401.5000	1.43879	0.000278382	0.12	267.575
401.0000	1.41283	0.000288452	0.120215	267.414
400.5000	1.46481	0.000292367	0.120374	267.259
400.0000	1.58274	0.000302928	0.120452	267.13
399.5000	1.53522	0.000294265	0.121097	267.015
399.0000	1.32787	0.000310407	0.12178	266.936
398.5000	1.19715	0.000305726	0.122188	266.867
398.0000	1.21324	0.000306256	0.122471	266.812
397.5000	1.30365	0.000298341	0.122678	266.776
397.0000	1.19749	0.000294815	0.12316	266.76
396.5000	1.18325	0.000305414	0.123543	266.783
396.0000	1.18401	0.000310326	0.124072	266.836
395.5000	1.24834	0.000306881	0.124115	266.905
395.0000	1.26815	0.000315749	0.124326	267.003
394.5000	1.2949	0.000306549	0.124621	267.123
394.0000	1.18746	0.000307576	0.124987	267.271
393.5000	1.19419	0.000312975	0.125064	267.437
393.0000	1.25389	0.000294479	0.125137	267.628
392.5000	1.35978	0.000304799	0.125255	267.799
392.0000	1.30741	0.000287958	0.12583	267.975
391.5000	1.21836	0.000292195	0.126515	268.126
391.0000	1.28904	0.000283645	0.126886	268.251
390.5000	1.30468	0.000275095	0.126964	268.362
390.0000	1.31093	0.000298055	0.127099	268.468
389.5000	1.38103	0.000303941	0.12781	268.585
389.0000	1.37734	0.000303351	0.128607	268.689
388.5000	1.4118	0.000302659	0.129152	268.787
388.0000	1.37441	0.000306994	0.12943	268.868
387.5000	1.37764	0.000306117	0.130022	268.945
387.0000	1.3231	0.000298687	0.131025	269.014
386.5000	1.18066	0.000287903	0.1319	269.082
386.0000	1.20175	0.000288063	0.133036	269.157
385.5000	1.21248	0.000276375	0.134023	269.214
385.0000	1.20465	0.000268922	0.13488	269.254
384.5000	1.10986	0.000256943	0.135778	269.296
384.0000	0.934342	0.00025682	0.136852	269.342
383.5000	1.07264	0.000248895	0.137518	269.375
383.0000	1.19603	0.000240366	0.138171	269.419
382.5000	1.28396	0.000227947	0.138945	269.467
382.0000	1.25702	0.000229082	0.140021	269.503
381.5000	1.24163	0.000209844	0.141386	269.553
381.0000	1.11505	0.000220774	0.142403	269.602
380.5000	1.09714	0.000207155	0.143235	269.65
380.0000	1.13647	0.000205508	0.144383	269.705
379.5000	1.17518	0.00020035	0.14556	269.759
379.0000	1.21549	0.000188991	0.14642	269.818
378.5000	1.25139	0.000190446	0.146948	269.875
378.0000	1.39474	0.00019364	0.147494	269.928
377.5000	1.45119	0.000190577	0.148207	269.982
377.0000	1.44459	0.000199827	0.148792	270.025
376.5000	1.45145	0.000201878	0.149629	270.067
376.0000	1.45766	0.000209404	0.150389	270.096
375.5000	1.53884	0.000205744	0.150875	270.118
375.0000	1.5385	0.000213929	0.151394	270.134
374.5000	1.3556	0.000206579	0.15198	270.148
374.0000	1.21865	0.000198658	0.152628	270.165
373.5000	1.16756	0.000187027	0.153229	270.185
373.0000	1.15394	0.000176447	0.153449	270.192
372.5000	1.16983	0.000169744	0.153798	270.203
372.0000	1.29446	0.000172135	0.154252	270.217
371.5000	1.15267	0.000166983	0.154514	270.223
371.0000	1.10423	0.000153072	0.155045	270.238
370.5000	1.15142	0.000164548	0.15572	270.259
370.0000	1.07483	0.000160419	0.156137	270.272
369.5000	1.05179	0.000148626	0.156631	270.299
369.0000	1.03305	0.000152992	0.157125	270.327
368.5000	1.00557	0.000148232	0.157857	270.37
368.0000	0.899755	0.000142079	0.158408	270.422
367.5000	0.886458	0.000132211	0.159136	270.484
367.0000	1.00176	0.000122767	0.160055	270.548
366.5000	0.993493	0.000108876	0.160835	270.627
366.0000	0.841766	0.000104093	0.161579	270.715
365.5000	0.905691	0.000105049	0.162197	270.794
365.0000	1.09	0.000119062	0.162586	270.864
364.5000	1.04315	0.000122192	0.163227	270.935
364.0000	1.01191	0.000113837	0.163703	271.01
363.5000	0.992499	0.00010997	0.164564	271.091
363.0000	1.19871	0.000102577	0.165343	271.169
362.5000	1.13384	9.4593E-005	0.166054	271.253
362.0000	1.15232	8.94107E-005	0.166717	271.336
361.5000	1.1686	9.21697E-005	0.167648	271.427
361.0000	1.15516	8.613E-005	0.168407	271.505
360.5000	1.02142	8.3573E-005	0.168978	271.586
360.0000	1.10135	7.70392E-005	0.169501	271.654
359.5000	1.24527	7.07171E-005	0.17001	271.727
359.0000	1.2278	6.1943E-005	0.170374	271.809
358.5000	1.19602	5.277E-005	0.170673	271.895
358.0000	1.28914	6.90998E-005	0.170886	271.97
357.5000	1.30837	8.80724E-005	0.170998	272.038
357.0000	1.29221	7.5892E-005	0.171458	272.114
356.5000	1.42698	7.21365E-005	0.172184	272.185
356.0000	1.38366	6.1789E-005	0.172495	272.251
355.5000	1.42149	5.3535E-005	0.173053	272.341
355.0000	1.5647	5.15045E-005	0.173271	272.412
354.5000	1.44045	5.15798E-005	0.173528	272.488
354.0000	1.39154	5.77588E-005	0.173884	272.562
353.5000	1.53936	5.20473E-005	0.174155	272.629
353.0000	1.4773	5.47241E-005	0.174414	272.702
352.5000	1.52913	5.30392E-005	0.174805	272.784
352.0000	1.51461	3.24506E-005	0.175216	272.868
351.5000	1.5932	3.61146E-005	0.175693	272.953
351.0000	1.52323	3.75357E-005	0.176391	273.029
350.5000	1.61279	3.08215E-005	0.177067	273.093
350.0000	1.56043	3.66921E-005	0.177867	273.164
349.5000	1.52093	2.31345E-005	0.178888	273.247
349.0000	1.50542	1.30805E-005	0.18002	273.332
348.5000	1.43483	1.78266E-005	0.181243	273.418
348.0000	1.33958	1.98637E-005	0.182122	273.497
347.5000	1.29624	2.75827E-005	0.183248	273.572
347.0000	1.24252	1.82743E-005	0.18444	273.649
346.5000	1.05949	1.36943E-005	0.185439	273.728
346.0000	1.30138	1.55034E-005	0.186319	273.802
345.5000	1.19492	-6.71989E-006	0.187418	273.88
345.0000	1.10131	-2.00527E-005	0.18866	273.968
344.5000	1.21955	-2.08365E-005	0.189788	274.045
344.0000	1.23722	-3.21364E-005	0.19112	274.124
343.5000	1.24691	-4.19749E-005	0.192082	274.194
343.0000	1.16728	-6.04857E-005	0.192948	274.264
342.5000	1.21704	-5.41783E-005	0.193757	274.343
342.0000	1.20282	-4.66936E-005	0.194586	274.426
341.5000	1.23473	-3.84907E-005	0.195393	274.498
341.0000	1.2622	-4.84452E-005	0.196283	274.56
340.5000	1.35289	-6.0004E-005	0.197009	274.632
340.0000	1.27993	-7.46389E-005	0.197886	274.719
339.5000	1.41306	-8.82768E-005	0.198426	274.8
339.0000	1.41511	-9.56711E-005	0.199257	274.882
338.5000	1.58645	-8.96155E-005	0.20017	274.965
338.0000	1.59908	-8.64197E-005	0.201084	275.053
337.5000	1.52664	-7.73275E-005	0.20194	275.144
337.0000	1.56631	-8.0149E-005	0.202655	275.232
336.5000	1.62655	-9.6691E-005	0.203604	275.321
336.0000	1.79352	-0.000101864	0.204467	275.414
335.5000	1.8169	-9.08587E-005	0.205227	275.498
335.0000	1.78417	-8.11869E-005	0.206157	275.596
334.5000	1.90285	-8.58063E-005	0.206963	275.692
334.0000	1.82935	-0.000100913	0.208078	275.805
333.5000	1.87335	-0.00010308	0.209514	275.915
333.0000	1.86866	-0.000112545	0.210609	276.025
332.5000	1.84329	-0.000108049	0.211431	276.138
332.0000	1.7781	-9.83166E-005	0.212256	276.244
331.5000	1.7706	-0.0001068	0.213425	276.361
331.0000	1.85471	-0.000100276	0.214684	276.483
330.5000	1.7907	-0.000100205	0.215592	276.594
330.0000	1.65188	-0.000107306	0.216579	276.703
329.5000	1.62359	-0.000115507	0.217758	276.83
329.0000	1.70578	-0.000146034	0.218787	276.954
328.5000	1.66225	-0.00014161	0.21993	277.076
328.0000	1.66243	-0.000148335	0.220721	277.177
327.5000	1.29655	-0.000158193	0.221818	277.287
327.0000	1.18403	-0.000176638	0.222923	277.374
326.5000	1.26211	-0.00017829	0.224234	277.478
326.0000	1.1635	-0.000181136	0.225821	277.603
325.5000	1.29304	-0.000192578	0.227126	277.724
325.0000	1.22433	-0.000210153	0.228215	277.855
324.5000	1.37967	-0.000227487	0.229469	277.988
324.0000	1.40692	-0.000247311	0.23106	278.134
323.5000	1.59459	-0.000263341	0.232764	278.281
323.0000	1.51438	-0.000267696	0.234201	278.427
322.5000	1.38992	-0.000273684	0.235647	278.579
322.0000	1.3155	-0.000272681	0.236921	278.727
321.5000	1.35564	-0.000282393	0.238553	278.886
321.0000	1.25409	-0.0002859	0.240194	279.043
320.5000	1.24536	-0.000289705	0.241915	279.201
320.0000	1.31979	-0.00028047	0.243354	279.348
319.5000	1.23972	-0.000285257	0.244931	279.507
319.0000	1.40449	-0.000278567	0.24653	279.692
318.5000	1.55627	-0.000284236	0.248247	279.897
318.0000	1.44214	-0.000301199	0.249645	280.068
317.5000	1.42264	-0.00029923	0.250989	280.216
317.0000	1.23493	-0.000308303	0.252638	280.364
316.5000	1.09637	-0.000309824	0.254357	280.505
316.0000	1.04454	-0.00032533	0.256259	280.666
315.5000	1.05952	-0.000325736	0.257802	280.827
315.0000	1.13805	-0.000323045	0.259442	281.008
314.5000	1.3219	-0.00032034	0.260961	281.178
314.0000	1.56768	-0.00030945	0.262825	281.37
313.5000	1.65896	-0.000316867	0.264541	281.546
313.0000	1.88295	-0.000320381	0.26636	281.741
312.5000	1.90496	-0.000320155	0.268069	281.937
312.0000	1.87558	-0.000333638	0.270138	282.148
311.5000	2.05676	-0.000330074	0.272059	282.358
311.0000	2.20062	-0.000333765	0.274278	282.572
310.5000	2.20106	-0.000350926	0.276207	282.801
310.0000	2.1395	-0.000353102	0.278329	283.026
309.5000	2.27854	-0.000362534	0.280642	283.266
309.0000	2.54736	-0.000364553	0.283276	283.543
308.5000	2.81566	-0.000362543	0.285688	283.828
308.0000	2.9625	-0.000352096	0.288045	284.103
307.5000	2.90913	-0.000364351	0.290777	284.408
307.0000	2.88753	-0.000363469	0.29355	284.696
306.5000	2.76186	-0.000367011	0.29655	285.007
306.0000	2.87732	-0.000391758	0.299742	285.321
305.5000	2.7053	-0.000401511	0.302932	285.665
305.0000	2.6054	-0.000412887	0.306255	286.009
304.5000	2.51319	-0.000416411	0.310137	286.393
304.0000	2.67304	-0.000413125	0.314259	286.791
303.5000	2.81624	-0.000403127	0.318301	287.183
303.0000	2.74079	-0.000415016	0.322629	287.625
302.5000	2.8084	-0.000407373	0.327063	288.083
302.0000	2.66937	-0.000409723	0.331789	288.551
301.5000	2.66701	-0.000401789	0.336812	289.043
301.0000	2.67592	-0.000403902	0.341754	289.549
300.5000	2.52108	-0.000407464	0.346134	290.002
300.0000	2.33467	-0.000416615	0.351807	290.553
299.5000	2.26805	-0.000416706	0.356992	291.069
299.0000	2.25835	-0.000404364	0.362119	291.595
298.5000	2.16664	-0.000412213	0.367361	292.144
298.0000	2.09548	-0.000431801	0.372385	292.662
297.5000	1.92121	-0.000422616	0.377591	293.192
297.0000	1.95946	-0.000435954	0.38262	293.661
296.5000	1.84327	-0.000426528	0.387333	294.12
296.0000	1.77312	-0.000429449	0.391985	294.578
295.5000	1.45399	-0.000431766	0.396475	294.994
295.0000	1.31669	-0.000422077	0.40084	295.381
294.5000	1.12231	-0.000426619	0.405123	295.773
294.0000	0.916957	-0.000430902	0.409517	296.218
293.5000	0.889645	-0.000426435	0.412894	296.578
293.0000	0.686988	-0.000410105	0.416468	296.952
292.5000	0.638724	-0.00041523	0.419991	297.341
292.0000	0.55326	-0.000393242	0.42303	297.696
291.5000	0.334604	-0.000387548	0.426242	298.054
291.0000	0.368484	-0.00037733	0.429357	298.401
290.5000	0.0282175	-0.000384972	0.432565	298.751
290.0000	-0.0973002	-0.000370343	0.435907	299.095
289.5000	-0.0888329	-0.000353175	0.438734	299.417
289.0000	-0.32448	-0.000331352	0.441535	299.744
288.5000	-0.271931	-0.000325483	0.444608	300.109
288.0000	-0.497604	-0.000304676	0.447473	300.457
287.5000	-0.492442	-0.000289592	0.450334	300.817
287.0000	-0.573031	-0.000284465	0.4535	301.247
286.5000	-0.443799	-0.000268405	0.456147	301.647
286.0000	-0.392285	-0.000251992	0.459135	302.043
285.5000	-0.620306	-0.000247085	0.462267	302.404
285.0000	-0.68383	-0.000234076	0.465845	302.814
284.5000	-0.849636	-0.000244057	0.469049	303.188
284.0000	-0.754769	-0.000238935	0.472429	303.58
283.5000	-0.519862	-0.000233996	0.476141	303.992
283.0000	-0.623565	-0.000240692	0.479654	304.389
282.5000	-0.568072	-0.000212674	0.483515	304.819
282.0000	-0.401111	-0.000180683	0.4872	305.264
281.5000	-0.328306	-0.000170122	0.490799	305.703
281.0000	-0.320915	-0.000172657	0.494687	306.152
280.5000	-0.158038	-0.000166147	0.498834	306.651
280.0000	-0.169297	-0.000149268	0.503245	307.173
279.5000	-0.246197	-0.000134799	0.507841	307.725
279.0000	-0.353582	-0.000131244	0.512414	308.283
278.5000	-0.0313835	-0.000120803	0.517274	308.866
278.0000	-0.042015	-0.000117646	0.523244	309.521
277.5000	0.0262391	-0.000103037	0.52874	310.129
277.0000	0.368353	-7.50317E-005	0.534703	310.814
276.5000	0.564926	-5.21258E-005	0.54065	311.513
276.0000	0.648776	-1.87708E-005	0.546439	312.183
275.5000	0.687496	-4.63908E-006	0.553394	312.955
275.0000	0.799647	1.45849E-005	0.56063	313.763
274.5000	1.06712	3.34945E-005	0.568051	314.614
274.0000	1.26561	2.57793E-005	0.576036	315.557
273.5000	1.29915	8.79032E-006	0.584089	316.467
273.0000	1.3268	2.22809E-005	0.592869	317.457
272.5000	1.35157	3.43244E-005	0.60216	318.51
272.0000	1.38709	4.90944E-005	0.611825	319.623
271.5000	1.58391	3.9187E-005	0.622363	320.838
271.0000	1.68482	4.32063E-005	0.633272	322.06
270.5000	1.70814	5.81577E-005	0.644812	323.336
270.0000	1.62954	6.41813E-005	0.656661	324.684
269.5000	1.56291	6.58482E-005	0.668789	326.101
269.0000	1.48735	8.82622E-005	0.681024	327.518
268.5000	1.2733	8.34308E-005	0.694638	329.082
268.0000	0.785211	6.61333E-005	0.70905	330.729
267.5000	0.529979	3.98893E-005	0.7241	332.459
267.0000	0.246367	5.26805E-005	0.740289	334.361
266.5000	-0.420467	3.52729E-005	0.757022	336.354
266.0000	-0.793532	2.86711E-005	0.773129	338.225
265.5000	-1.34136	3.30019E-005	0.790711	340.246
265.0000	-1.93903	1.76189E-005	0.809275	342.434
264.5000	-1.90249	-1.30304E-006	0.82719	344.581
264.0000	-1.96658	9.85013E-006	0.845352	346.769
263.5000	-2.6675	4.09608E-006	0.864952	349.108
263.0000	-3.38088	-7.39566E-007	0.883022	351.278
262.5000	-3.98957	-9.43165E-006	0.902715	353.699
262.0000	-4.67869	-3.03221E-005	0.921328	356.043
261.5000	-4.9655	-1.94337E-005	0.940496	358.433
261.0000	-5.77867	-5.49767E-005	0.95935	360.743
260.5000	-6.598	-0.000105234	0.979415	363.232
260.0000	-6.90106	-0.000112094	0.99956	365.762
259.5000	-7.68958	-9.69132E-005	1.02016	368.375
259.0000	-8.76203	-0.000123125	1.04106	371.066
258.5000	-9.63945	-0.000164132	1.06274	373.826
258.0000	-9.8274	-0.000188326	1.08512	376.684
257.5000	-10.7103	-0.000199156	1.10706	379.495
257.0000	-11.7972	-0.000250224	1.131	382.575
256.5000	-12.8693	-0.000275996	1.15456	385.61
256.0000	-14.1106	-0.000282202	1.18049	388.941
255.5000	-15.4851	-0.000314082	1.20767	392.431
255.0000	-16.4403	-0.000356195	1.23596	396.09
254.5000	-17.13	-0.000399463	1.26395	399.73
254.0000	-18.1128	-0.000428117	1.29308	403.529
253.5000	-18.8686	-0.000461079	1.32706	407.922
253.0000	-20.307	-0.000513069	1.35872	412.07
252.5000	-21.8878	-0.000516346	1.40717	418.521
252.0000	-24.517	-0.000562543	1.44907	424.127
251.5000	-25.4778	-0.000590014	1.48703	429.228
251.0000	-26.29	-0.000575978	1.52665	434.546
250.5000	-26.4824	-0.000564099	1.56745	440.097
250.0000	-27.4521	-0.000625972	1.60729	445.584
249.5000	-28.27	-0.000630797	1.64835	451.297
249.0000	-29.3208	-0.000640473	1.6931	457.571
248.5000	-30.2162	-0.000659826	1.73725	463.79
248.0000	-30.4225	-0.000540997	1.78536	470.644
247.5000	-32.2828	-0.000641058	1.83251	477.46
247.0000	-32.589	-0.000711573	1.88376	484.963
246.5000	-33.5423	-0.000613798	1.93698	492.823
246.0000	-32.1308	-0.000541271	1.99237	501.077
245.5000	-32.997	-0.000534372	2.05203	510.156
245.0000	-34.014	-0.00042572	2.1141	519.733
244.5000	-35.1167	-0.000318879	2.17839	529.79
244.0000	-35.8342	-0.000335659	2.24477	540.367
243.5000	-34.4111	-0.000352809	2.3098	550.922
243.0000	-34.8274	-0.000385906	2.3765	561.967
242.5000	-35.6414	-0.000401268	2.45179	574.678
242.0000	-34.7637	-0.00032641	2.51877	586.2
241.5000	-32.7243	-0.000305335	2.59442	599.461
241.0000	-31.4861	-0.000250714	2.66437	611.961
240.5000	-27.4999	-0.000249716	2.74229	626.248
240.0000	-28.4359	-0.00019701	2.81345	639.564
239.5000	-29.4115	-0.00032839	2.89598	655.346
239.0000	-27.5896	-4.54805E-005	2.96695	669.192
238.5000	-24.307	-2.1485E-005	3.04063	683.889
238.0000	-20.3654	0.000101071	3.11596	699.332
237.5000	-20.7075	-4.83135E-005	3.18192	713.203
237.0000	-17.8314	-0.000267289	3.2485	727.528
236.5000	-14.2249	-0.000166331	3.31173	741.468
236.0000	-8.5555	-2.45101E-005	3.36846	754.257
235.5000	-6.88326	-4.01317E-005	3.42928	768.384
235.0000	-5.6347	7.39405E-005	3.46767	777.533
234.5000	-4.75442	0.000101066	3.50604	786.854
234.0000	-4.55052	0.000237429	3.54351	796.161
233.5000	-3.32582	5.53996E-005	3.58142	805.799
233.0000	-3.33702	0.000169898	3.6164	815.008
232.5000	-1.16088	0.000377552	3.64474	822.85
232.0000	-1.55426	0.000604912	3.67207	830.872
231.5000	0.053929	0.000523335	3.68996	836.56
231.0000	5.08393	0.000578104	3.70571	842.026
230.5000	5.18808	0.000932106	3.717	846.62
230.0000	6.8509	0.000906862	3.72379	850.224
229.5000	6.256	0.00108215	3.72777	853.323
229.0000	7.94717	0.00128069	3.72862	855.775
228.5000	8.4656	0.00147037	3.72712	857.684
228.0000	8.58675	0.00126276	3.72374	859.083
227.5000	4.86631	0.00114723	3.71809	860.214
227.0000	3.38028	0.00111833	3.71111	861.071
226.5000	0.633786	0.00142142	3.70265	861.73
226.0000	-1.63352	0.0015469	3.69398	862.167
225.5000	-1.82515	0.00141016	3.68403	862.496
225.0000	-1.83518	0.00143897	3.67304	862.732
224.5000	0.462527	0.00158054	3.66148	862.905
224.0000	-2.31604	0.00145474	3.64982	863.042
223.5000	-3.3044	0.00128995	3.63822	863.13
223.0000	-5.0712	0.00102279	3.62676	863.211
222.5000	-5.67441	0.000788212	3.61235	863.262
222.0000	-6.72129	0.000598496	3.59901	863.29
221.5000	-11.6916	9.64189E-005	3.58486	863.297
221.0000	-11.1037	2.62667E-005	3.57279	863.313
220.5000	-11.5537	-1.421E-005	3.56064	863.338
220.0000	-9.17021	0.000170607	3.54775	863.356

##### Extended Information
[Comments]
Sample name	JS187+JS190_5E-5_H2O_20-80_100EQDT+72H
Comment
User
Division
Company	Labo systeme complexes hors equilibre

[Detailed Information]
Creation date	1/26/2024 12:17 PM

Data array type	Linear data array * 4
Horizontal axis	Wavelength [nm]
Vertical axis(1)	CD [mdeg]
Vertical axis(2)	LD [dOD]
Vertical axis(3)	Abs
Vertical axis(4)	HT [V]
Start	700 nm
End	220 nm
Data interval	0.5 nm
Data points	961     

[Measurement Information]
Instrument name	CD Jasco
Model name	J-1500
Serial No.	A005261638

Detector	PM-539
Detector S/N	A0052PM539
  Lock-in amp.	X mode
  HT volt	Auto

Detector	EXPML-535
Detector S/N	A0001
  Lock-in amp.	X mode
  HT volt	Auto

Measurement date	1/26/2024 12:17 PM

Overload detect	1
Photometric mode	CD, LD, Abs, HT
Measure range	700 - 220 nm
Data pitch	0.5 nm
CD scale	200 mdeg/1.0 dOD
FL scale	200 mdeg/1.0 dOD
D.I.T.	1 sec
Bandwidth	1.00 nm
Start mode	Immediately
Scanning speed	500 nm/min
Baseline correction	Baseline
Shutter control	Auto


