TITLE	JS187+JS190_5E-5_H2O_100-0_100EQDT+72H
DATA TYPE	
ORIGIN	JASCO
OWNER	
DATE	24/01/26
TIME	10:07:04
SPECTROMETER/DATA SYSTEM	
LOCALE	1033
RESOLUTION	
DELTAX	-0.5
XUNITS	NANOMETERS
YUNITS	CD [mdeg]
Y2UNITS	LD [dOD]
Y3UNITS	ABSORBANCE
Y4UNITS	HT [V]
FIRSTX	  700.0000
LASTX	  220.0000
NPOINTS	     961
FIRSTY	     0.86233
MAXY	    30.94535
MINY	   -33.54932
XYDATA
700.0000	0.862326	-0.00055055	-0.0263473	301.833
699.5000	0.601293	-0.00054289	-0.0270631	301.562
699.0000	0.590464	-0.000542282	-0.0278719	301.237
698.5000	0.814535	-0.000515561	-0.0282481	300.868
698.0000	0.600553	-0.000524743	-0.0289364	300.471
697.5000	0.418538	-0.00052238	-0.0303022	300.035
697.0000	0.29166	-0.000511741	-0.0320079	299.549
696.5000	0.353101	-0.000490051	-0.0329493	299.053
696.0000	0.334672	-0.000475792	-0.033007	298.524
695.5000	0.307712	-0.000489214	-0.0331155	297.992
695.0000	0.150873	-0.000496782	-0.0327464	297.506
694.5000	-0.143016	-0.000507779	-0.0324512	297.033
694.0000	-0.38529	-0.000515891	-0.0311775	296.577
693.5000	-0.244	-0.000491321	-0.0295451	296.158
693.0000	-0.304155	-0.000491762	-0.0273131	295.795
692.5000	-0.573922	-0.000509042	-0.0249552	295.466
692.0000	-0.71225	-0.000493599	-0.0226337	295.174
691.5000	-0.711855	-0.000503032	-0.0198785	294.933
691.0000	-0.524869	-0.000492604	-0.0173711	294.686
690.5000	-0.659209	-0.000494029	-0.0157032	294.466
690.0000	-0.610779	-0.000485711	-0.0144517	294.254
689.5000	-0.693165	-0.0004935	-0.0130146	294.082
689.0000	-0.690908	-0.000488247	-0.0110235	293.945
688.5000	-0.701261	-0.000507018	-0.00899672	293.891
688.0000	-0.951669	-0.000510711	-0.00612519	293.943
687.5000	-1.15404	-0.000508145	-0.00277009	294.087
687.0000	-1.23272	-0.000508619	0.000278219	294.281
686.5000	-1.33659	-0.000523407	0.00285443	294.52
686.0000	-1.16568	-0.000525136	0.00399405	294.757
685.5000	-1.10683	-0.000514232	0.00424784	295.014
685.0000	-1.15389	-0.000533446	0.00418602	295.276
684.5000	-1.29318	-0.00055089	0.0034144	295.516
684.0000	-0.88873	-0.000549988	0.00209789	295.741
683.5000	-0.916418	-0.000548207	0.0012162	295.969
683.0000	-0.940203	-0.000536365	0.000294273	296.207
682.5000	-1.14676	-0.000551892	-9.51969E-005	296.45
682.0000	-0.903275	-0.000561754	-0.000614942	296.718
681.5000	-0.825938	-0.00058177	-0.000537202	296.995
681.0000	-0.681533	-0.000575756	-0.000292596	297.3
680.5000	-0.417011	-0.000562434	-0.000105268	297.576
680.0000	-0.384827	-0.000579007	-0.00137989	297.784
679.5000	-0.433169	-0.000576823	-0.00323804	297.93
679.0000	-0.273656	-0.00056723	-0.00632248	298.006
678.5000	-0.177766	-0.000569661	-0.00836831	298.047
678.0000	-0.0807835	-0.000543256	-0.0103995	298.049
677.5000	0.0376542	-0.000547249	-0.0116512	298.034
677.0000	0.0600362	-0.000536107	-0.0123449	298
676.5000	0.240562	-0.000525738	-0.0121768	297.976
676.0000	0.221659	-0.000519243	-0.0119617	297.954
675.5000	0.258448	-0.000528184	-0.0116305	297.942
675.0000	0.319494	-0.000541553	-0.0112421	297.921
674.5000	0.19909	-0.000541541	-0.0103487	297.918
674.0000	0.120361	-0.000518391	-0.00937077	297.924
673.5000	0.138903	-0.000519581	-0.00827858	297.942
673.0000	-0.0133911	-0.000505903	-0.00809284	297.968
672.5000	-0.210514	-0.00051704	-0.00790013	298.006
672.0000	-0.378527	-0.000511275	-0.007446	298.045
671.5000	-0.341874	-0.000495786	-0.00650781	298.087
671.0000	-0.576849	-0.000513852	-0.0056412	298.125
670.5000	-0.524025	-0.000510021	-0.00448479	298.173
670.0000	-0.641581	-0.000505586	-0.00356809	298.221
669.5000	-0.519272	-0.0004998	-0.00310307	298.28
669.0000	-0.452411	-0.000501368	-0.0025015	298.35
668.5000	-0.301669	-0.000511546	-0.00202462	298.412
668.0000	-0.320501	-0.000541321	-0.00161261	298.5
667.5000	-0.454039	-0.000514706	-0.00134829	298.591
667.0000	-0.546539	-0.000514025	-0.00128374	298.69
666.5000	-0.530454	-0.000519621	-0.00121902	298.788
666.0000	-0.436243	-0.00049912	-0.00192537	298.888
665.5000	-0.577148	-0.000512056	-0.00201543	299.007
665.0000	-0.563709	-0.000511069	-0.00135475	299.121
664.5000	-0.462815	-0.000501209	-0.000550503	299.22
664.0000	-0.52737	-0.000499116	-0.000440698	299.318
663.5000	-0.477411	-0.000500741	-0.00136633	299.411
663.0000	-0.313928	-0.000504265	-0.00150214	299.499
662.5000	-0.177344	-0.000476849	-0.00181899	299.574
662.0000	-0.281989	-0.000492055	-0.00215132	299.643
661.5000	-0.636399	-0.00050724	-0.00203736	299.692
661.0000	-0.830844	-0.000509037	-0.00233488	299.729
660.5000	-1.08615	-0.00048388	-0.00280597	299.756
660.0000	-0.871012	-0.000480265	-0.00318429	299.759
659.5000	-0.886954	-0.000477316	-0.00391917	299.759
659.0000	-0.760221	-0.000475476	-0.00449012	299.739
658.5000	-0.752542	-0.000485209	-0.00479709	299.71
658.0000	-0.861151	-0.0004875	-0.00473591	299.665
657.5000	-0.45457	-0.000478036	-0.00538468	299.587
657.0000	-0.586478	-0.000485397	-0.00520217	299.485
656.5000	-0.621092	-0.000483752	-0.00610488	299.364
656.0000	-0.31494	-0.000475364	-0.00701866	299.218
655.5000	-0.0612531	-0.000481508	-0.00639359	299.067
655.0000	-0.102286	-0.000467833	-0.00664312	298.885
654.5000	-0.094007	-0.00046979	-0.00740202	298.703
654.0000	-0.095515	-0.000468984	-0.00735178	298.521
653.5000	-0.0272382	-0.000461605	-0.00653847	298.353
653.0000	0.115299	-0.00045187	-0.00540206	298.195
652.5000	0.170669	-0.000457855	-0.00433127	298.058
652.0000	0.390918	-0.00046468	-0.00299042	297.955
651.5000	0.199066	-0.000449678	-0.00117727	297.879
651.0000	0.210603	-0.000460224	0.00109667	297.831
650.5000	0.0142056	-0.000455272	0.0026448	297.81
650.0000	0.24342	-0.000451274	0.00465555	297.817
649.5000	0.0914703	-0.000444231	0.00606826	297.843
649.0000	0.03646	-0.000441046	0.00767349	297.887
648.5000	0.167681	-0.000443562	0.00849448	297.966
648.0000	0.247745	-0.000452279	0.00973771	298.075
647.5000	-0.0495009	-0.000450067	0.0108552	298.198
647.0000	-0.279137	-0.000455241	0.0114951	298.349
646.5000	-0.112995	-0.000467068	0.0121082	298.517
646.0000	-0.0664851	-0.000477875	0.0135807	298.685
645.5000	-0.0743514	-0.000461206	0.0142557	298.85
645.0000	-0.193849	-0.00047016	0.0137208	298.996
644.5000	-0.136324	-0.000447406	0.0135369	299.129
644.0000	-0.205744	-0.000444005	0.0134775	299.236
643.5000	-0.377528	-0.000447326	0.0129703	299.312
643.0000	-0.269743	-0.000441264	0.0125034	299.365
642.5000	0.0622101	-0.000424132	0.0120646	299.391
642.0000	0.210969	-0.000409733	0.0118466	299.401
641.5000	0.326814	-0.000417517	0.0115213	299.394
641.0000	0.234047	-0.000437775	0.0115733	299.376
640.5000	0.080264	-0.000437503	0.012082	299.35
640.0000	0.0210646	-0.000432522	0.0126735	299.299
639.5000	0.0741922	-0.000436025	0.0137038	299.247
639.0000	0.115416	-0.000414528	0.0145107	299.19
638.5000	0.165759	-0.000424239	0.0158451	299.129
638.0000	0.150255	-0.000397134	0.0166578	299.073
637.5000	0.233027	-0.000391208	0.0170394	298.994
637.0000	0.341097	-0.000373109	0.018355	298.919
636.5000	0.286325	-0.000393321	0.0193821	298.844
636.0000	0.36992	-0.000399493	0.0197252	298.773
635.5000	0.570853	-0.000394451	0.0203787	298.722
635.0000	0.504469	-0.000388553	0.0214479	298.674
634.5000	0.348705	-0.000420108	0.0223626	298.626
634.0000	-0.0513272	-0.000414642	0.0232499	298.587
633.5000	-0.2365	-0.000419035	0.0238023	298.555
633.0000	-0.250231	-0.000411774	0.0248573	298.523
632.5000	-0.170452	-0.00040456	0.0254224	298.507
632.0000	-0.0908505	-0.000401501	0.0260519	298.496
631.5000	-0.162873	-0.000406105	0.0268279	298.472
631.0000	0.150346	-0.0003838	0.0275313	298.446
630.5000	0.0823972	-0.00038909	0.0282306	298.421
630.0000	0.0509922	-0.000372843	0.0289122	298.387
629.5000	0.179587	-0.000367474	0.0297946	298.358
629.0000	0.222023	-0.000362973	0.0305501	298.34
628.5000	0.290219	-0.000372493	0.0310873	298.321
628.0000	0.192865	-0.000355237	0.0318709	298.298
627.5000	0.0257771	-0.000348299	0.0329511	298.271
627.0000	-0.0392785	-0.000363975	0.0335494	298.247
626.5000	0.115571	-0.000357266	0.0338099	298.221
626.0000	-0.0675821	-0.000375766	0.0343314	298.211
625.5000	-0.122482	-0.000381451	0.0354686	298.201
625.0000	-0.20092	-0.000394725	0.036721	298.195
624.5000	-0.0065471	-0.000387733	0.0379449	298.189
624.0000	-0.109528	-0.000370292	0.0389858	298.186
623.5000	-0.125998	-0.000359012	0.0402107	298.205
623.0000	-0.156006	-0.000373233	0.0414292	298.239
622.5000	-0.16554	-0.000380337	0.0428112	298.286
622.0000	-0.171994	-0.000388543	0.0439672	298.348
621.5000	-0.0156972	-0.000386281	0.0451612	298.42
621.0000	-0.157453	-0.000386938	0.0463303	298.494
620.5000	-0.228889	-0.000390109	0.0472501	298.58
620.0000	-0.313506	-0.000390262	0.0481425	298.687
619.5000	-0.345664	-0.000403745	0.0495237	298.831
619.0000	-0.251798	-0.000428948	0.0513535	298.991
618.5000	-0.514287	-0.000443805	0.0536276	299.168
618.0000	-0.672165	-0.000433912	0.0557076	299.329
617.5000	-0.329609	-0.000425934	0.0568077	299.499
617.0000	-0.328502	-0.000403761	0.0576068	299.673
616.5000	-0.352173	-0.00040584	0.0584146	299.844
616.0000	-0.159834	-0.000412523	0.0597777	300.024
615.5000	-0.183094	-0.000425492	0.0607416	300.204
615.0000	-0.290823	-0.000433047	0.0615608	300.379
614.5000	-0.215594	-0.000433175	0.0622049	300.554
614.0000	-0.270432	-0.000432439	0.0628574	300.727
613.5000	-0.373151	-0.000442262	0.0638537	300.91
613.0000	-0.311772	-0.000455429	0.0647598	301.101
612.5000	-0.214053	-0.000465057	0.0656811	301.284
612.0000	0.00811556	-0.000466878	0.0666416	301.46
611.5000	-0.116876	-0.000463628	0.0677435	301.618
611.0000	-0.154786	-0.00045993	0.0684254	301.787
610.5000	0.0370884	-0.000445602	0.0690623	301.958
610.0000	0.100989	-0.000463443	0.0694586	302.113
609.5000	0.0354662	-0.000456436	0.0704905	302.268
609.0000	-0.0409069	-0.000448798	0.0714026	302.408
608.5000	-0.220912	-0.000469017	0.072821	302.561
608.0000	-0.247817	-0.00045043	0.0736891	302.691
607.5000	-0.371815	-0.000461309	0.0740936	302.817
607.0000	-0.181972	-0.000460481	0.0751119	302.967
606.5000	-0.330528	-0.000461016	0.0762235	303.112
606.0000	-0.300214	-0.000445743	0.077843	303.239
605.5000	-0.585853	-0.000447741	0.0791263	303.363
605.0000	-0.775121	-0.000455585	0.0806439	303.476
604.5000	-0.737301	-0.00044775	0.0820475	303.599
604.0000	-1.02482	-0.000443661	0.0836229	303.712
603.5000	-0.93466	-0.000453103	0.0854367	303.83
603.0000	-0.726046	-0.000442312	0.0866864	303.935
602.5000	-0.678439	-0.000447394	0.0883223	304.03
602.0000	-0.221492	-0.000445108	0.0902215	304.134
601.5000	-0.295988	-0.000451618	0.0921181	304.25
601.0000	-0.356074	-0.000454375	0.0940498	304.368
600.5000	-0.129964	-0.000448073	0.0964553	304.479
600.0000	-0.167086	-0.00044837	0.0984079	304.571
599.5000	-0.154521	-0.000444838	0.101285	304.666
599.0000	-0.215463	-0.000431263	0.103562	304.738
598.5000	-0.061498	-0.000415605	0.106296	304.796
598.0000	0.0554057	-0.000407652	0.108714	304.863
597.5000	0.2356	-0.000407287	0.110948	304.931
597.0000	0.291351	-0.000397617	0.113661	305.015
596.5000	0.310101	-0.000406566	0.116301	305.068
596.0000	0.607343	-0.000376636	0.118984	305.119
595.5000	0.428146	-0.000392654	0.121547	305.175
595.0000	0.418332	-0.000395751	0.124481	305.227
594.5000	0.374414	-0.000393329	0.127594	305.296
594.0000	0.310928	-0.000378975	0.130052	305.355
593.5000	0.339166	-0.000349175	0.132957	305.402
593.0000	0.582052	-0.000349124	0.136321	305.461
592.5000	0.943908	-0.000330275	0.139294	305.548
592.0000	1.05124	-0.00032154	0.142321	305.663
591.5000	0.972254	-0.000327462	0.144934	305.767
591.0000	1.04829	-0.000312651	0.148211	305.89
590.5000	0.974504	-0.00030723	0.151411	306.047
590.0000	0.857597	-0.000310531	0.154831	306.216
589.5000	0.952786	-0.000315717	0.158474	306.391
589.0000	1.03153	-0.000316307	0.162205	306.579
588.5000	1.24168	-0.00030226	0.165949	306.794
588.0000	1.14503	-0.000302635	0.170132	307.037
587.5000	1.1947	-0.000305866	0.174437	307.307
587.0000	1.3672	-0.000293555	0.178779	307.617
586.5000	1.55926	-0.000302747	0.183027	307.928
586.0000	1.43689	-0.00029368	0.188133	308.271
585.5000	1.49024	-0.000312127	0.192871	308.631
585.0000	1.64955	-0.000324354	0.197525	309
584.5000	1.8059	-0.000298268	0.202047	309.357
584.0000	2.05837	-0.000305637	0.207324	309.763
583.5000	2.17556	-0.000307243	0.212956	310.201
583.0000	2.45341	-0.000294532	0.21929	310.686
582.5000	2.82074	-0.000283228	0.225506	311.2
582.0000	3.47533	-0.000282631	0.231868	311.726
581.5000	3.76411	-0.000246015	0.238684	312.301
581.0000	4.00366	-0.000230069	0.245948	312.895
580.5000	4.38818	-0.000207384	0.253404	313.514
580.0000	4.71551	-0.000202386	0.260709	314.139
579.5000	5.27867	-0.000180015	0.268176	314.796
579.0000	5.89756	-0.000137649	0.275797	315.458
578.5000	6.41603	-0.00010757	0.284009	316.137
578.0000	7.22507	-6.49487E-005	0.292264	316.852
577.5000	7.7665	-3.44769E-005	0.300684	317.643
577.0000	8.27015	4.72061E-006	0.309956	318.432
576.5000	9.02631	3.42106E-005	0.320209	319.313
576.0000	9.73655	5.09837E-005	0.330242	320.182
575.5000	10.3122	7.7872E-005	0.340985	321.108
575.0000	11.008	0.000104497	0.350608	321.981
574.5000	11.9621	0.000146015	0.361606	322.962
574.0000	12.7758	0.000164487	0.372709	323.927
573.5000	13.7454	0.000213476	0.383949	324.919
573.0000	14.7943	0.000254277	0.395532	325.996
572.5000	16.0035	0.000275638	0.406499	327.023
572.0000	16.9693	0.000303985	0.418953	328.208
571.5000	17.9468	0.000346627	0.431486	329.381
571.0000	18.9681	0.000391429	0.445224	330.62
570.5000	20.2822	0.00042488	0.459017	331.924
570.0000	21.1824	0.000464745	0.472262	333.189
569.5000	22.1658	0.00050813	0.486776	334.522
569.0000	23.122	0.000556698	0.501498	335.877
568.5000	24.074	0.000587648	0.51506	337.184
568.0000	24.8253	0.000615011	0.528784	338.541
567.5000	25.8457	0.000673359	0.542545	339.897
567.0000	26.829	0.00071157	0.556315	341.219
566.5000	27.3994	0.000718485	0.569811	342.499
566.0000	27.9721	0.000749305	0.583188	343.769
565.5000	28.6651	0.000744816	0.595998	345.019
565.0000	29.2322	0.000740727	0.60876	346.233
564.5000	29.5859	0.000766115	0.621305	347.419
564.0000	29.7644	0.000778584	0.633136	348.504
563.5000	30.2325	0.000805642	0.644153	349.541
563.0000	30.7003	0.000806343	0.65516	350.609
562.5000	30.7775	0.000823376	0.665333	351.569
562.0000	30.882	0.000804834	0.67505	352.477
561.5000	30.9453	0.00079352	0.685525	353.415
561.0000	30.6151	0.000766178	0.694847	354.275
560.5000	30.6832	0.000778395	0.703459	355.072
560.0000	30.5981	0.000772205	0.711704	355.801
559.5000	30.5049	0.000757628	0.719491	356.435
559.0000	30.173	0.000726753	0.725997	356.958
558.5000	29.4728	0.000677159	0.731376	357.399
558.0000	29.4331	0.000663961	0.735771	357.745
557.5000	29.1452	0.000634549	0.739884	358.025
557.0000	28.5354	0.000618824	0.743362	358.221
556.5000	28.2072	0.000607176	0.745821	358.358
556.0000	27.517	0.000574144	0.747206	358.435
555.5000	27.2258	0.000543891	0.748188	358.431
555.0000	26.4998	0.000509157	0.748689	358.354
554.5000	25.9759	0.00048917	0.748841	358.196
554.0000	25.474	0.000471502	0.747908	357.983
553.5000	24.7647	0.000433835	0.74658	357.725
553.0000	24.5889	0.000435864	0.744856	357.435
552.5000	24.3156	0.000401182	0.743162	357.095
552.0000	23.9211	0.000347612	0.740774	356.673
551.5000	23.1963	0.000294475	0.738328	356.259
551.0000	22.5948	0.000250949	0.735235	355.82
550.5000	22.0114	0.000242607	0.731883	355.336
550.0000	21.2059	0.000226615	0.728558	354.826
549.5000	20.7925	0.000207501	0.725604	354.337
549.0000	20.4119	0.000205431	0.722036	353.847
548.5000	20.0555	0.000186396	0.718435	353.365
548.0000	19.6246	0.000177348	0.715665	352.846
547.5000	19.6423	0.00016968	0.713109	352.375
547.0000	19.3896	0.000160306	0.710651	351.893
546.5000	19.2237	0.000146934	0.708127	351.472
546.0000	19.1991	0.000144476	0.705178	351.08
545.5000	19.4816	0.000189858	0.703455	350.705
545.0000	19.4593	0.000170185	0.701892	350.396
544.5000	19.7147	0.000170069	0.700516	350.096
544.0000	19.6623	0.000171617	0.699257	349.856
543.5000	19.7702	0.000216627	0.698576	349.665
543.0000	20.2864	0.000257569	0.698476	349.52
542.5000	20.7849	0.000255943	0.699034	349.414
542.0000	21.2718	0.00028773	0.699711	349.356
541.5000	21.8133	0.000328367	0.70064	349.346
541.0000	21.9857	0.000331552	0.701635	349.366
540.5000	22.0954	0.000345385	0.703906	349.447
540.0000	22.7988	0.000363669	0.706722	349.57
539.5000	23.0497	0.000381983	0.709647	349.758
539.0000	23.484	0.000419662	0.712836	350.013
538.5000	24.1471	0.000415914	0.716598	350.308
538.0000	24.3556	0.000438369	0.720872	350.613
537.5000	24.5895	0.000434536	0.725578	350.975
537.0000	25.1278	0.000430865	0.730482	351.383
536.5000	25.0771	0.000456303	0.735744	351.814
536.0000	25.92	0.000496597	0.741835	352.316
535.5000	26.4752	0.00048251	0.748021	352.838
535.0000	26.8499	0.000496043	0.754798	353.405
534.5000	26.8616	0.000499503	0.761441	353.971
534.0000	27.7431	0.000519562	0.768418	354.578
533.5000	27.6321	0.00052444	0.775553	355.226
533.0000	28.1597	0.000548768	0.782541	355.87
532.5000	28.4707	0.00057317	0.789652	356.536
532.0000	28.7255	0.000556238	0.797393	357.256
531.5000	28.7466	0.00054497	0.805525	358.005
531.0000	28.8325	0.000532825	0.814489	358.78
530.5000	29.0872	0.000536534	0.822899	359.539
530.0000	29.2507	0.000520745	0.831532	360.341
529.5000	29.2353	0.000526775	0.839945	361.121
529.0000	29.1361	0.000529577	0.848136	361.848
528.5000	28.9547	0.000525212	0.856239	362.591
528.0000	28.9479	0.000515936	0.863912	363.291
527.5000	28.1164	0.000471388	0.872011	364.01
527.0000	27.8589	0.000454625	0.880652	364.775
526.5000	27.5781	0.000438384	0.888526	365.497
526.0000	26.9184	0.000405435	0.896822	366.23
525.5000	26.4641	0.000386427	0.904937	366.944
525.0000	25.9974	0.000380295	0.912854	367.641
524.5000	25.1877	0.000377004	0.920118	368.254
524.0000	25.167	0.000365867	0.926795	368.809
523.5000	24.2792	0.00036966	0.933292	369.38
523.0000	23.5968	0.000318173	0.939403	369.909
522.5000	22.9396	0.000289173	0.944817	370.391
522.0000	21.8648	0.000267883	0.950556	370.878
521.5000	20.9703	0.000222756	0.956377	371.349
521.0000	20.2138	0.000221253	0.961659	371.783
520.5000	19.649	0.000200509	0.966711	372.192
520.0000	19.3121	0.00014766	0.971049	372.534
519.5000	18.4222	0.000126778	0.975534	372.861
519.0000	17.6132	0.000114335	0.979441	373.154
518.5000	16.84	7.703E-005	0.98291	373.433
518.0000	15.7595	4.39967E-005	0.986802	373.722
517.5000	14.9271	1.05633E-005	0.990553	373.985
517.0000	14.5462	-1.59379E-005	0.994194	374.21
516.5000	13.8572	-6.06227E-005	0.997747	374.421
516.0000	13.2455	-7.78875E-005	1.00108	374.632
515.5000	12.2536	-9.23534E-005	1.00391	374.838
515.0000	11.5671	-0.000146916	1.00651	375.007
514.5000	11.1657	-0.000116938	1.00913	375.194
514.0000	10.5344	-0.000150721	1.01146	375.338
513.5000	9.78355	-0.000168182	1.01392	375.485
513.0000	9.07388	-0.000222489	1.016	375.632
512.5000	8.30405	-0.000245079	1.01843	375.789
512.0000	7.52344	-0.000247136	1.02088	375.942
511.5000	7.05394	-0.000269518	1.02295	376.093
511.0000	6.35173	-0.000301684	1.0252	376.247
510.5000	5.50164	-0.000311217	1.02752	376.38
510.0000	5.28221	-0.000288503	1.02964	376.493
509.5000	4.64089	-0.000316862	1.03155	376.6
509.0000	4.51175	-0.00031131	1.03337	376.711
508.5000	3.71956	-0.000335641	1.03503	376.792
508.0000	3.19642	-0.000402038	1.03677	376.847
507.5000	2.64341	-0.000440345	1.03853	376.895
507.0000	2.28877	-0.000465439	1.04046	376.955
506.5000	2.03266	-0.000511981	1.04242	377.023
506.0000	1.51817	-0.000521818	1.04388	377.081
505.5000	1.18348	-0.000510458	1.04535	377.138
505.0000	0.83197	-0.00053648	1.04682	377.188
504.5000	0.138213	-0.000524182	1.04834	377.227
504.0000	-0.128757	-0.000580353	1.04954	377.238
503.5000	-0.871892	-0.000572963	1.05045	377.221
503.0000	-1.47799	-0.000598669	1.05139	377.188
502.5000	-1.63941	-0.000617019	1.05205	377.146
502.0000	-2.00647	-0.00064706	1.05267	377.107
501.5000	-2.41106	-0.000676878	1.05322	377.04
501.0000	-3.41592	-0.000699116	1.05362	376.941
500.5000	-3.94546	-0.000734731	1.05412	376.827
500.0000	-4.99203	-0.00078723	1.05442	376.673
499.5000	-5.85013	-0.000779568	1.05394	376.456
499.0000	-6.3086	-0.00081552	1.05316	376.128
498.5000	-7.30923	-0.00082718	1.0519	375.66
498.0000	-8.1568	-0.000847661	1.05038	375.068
497.5000	-9.2558	-0.000900467	1.04905	374.322
497.0000	-9.89	-0.000938401	1.04823	373.533
496.5000	-10.4879	-0.000922978	1.04786	372.717
496.0000	-11.3924	-0.000939553	1.04862	372.09
495.5000	-12.2958	-0.000976466	1.04984	371.654
495.0000	-12.8602	-0.00101541	1.0501	371.343
494.5000	-13.7242	-0.00103018	1.04964	371.064
494.0000	-14.1142	-0.00105606	1.04881	370.793
493.5000	-15.1599	-0.00108959	1.04774	370.494
493.0000	-15.7047	-0.00114642	1.04685	370.229
492.5000	-16.3307	-0.00118184	1.0458	369.948
492.0000	-16.9508	-0.00121188	1.04449	369.654
491.5000	-17.932	-0.00125114	1.04306	369.395
491.0000	-18.686	-0.00125714	1.04191	369.167
490.5000	-19.16	-0.00128446	1.04061	368.962
490.0000	-20.1336	-0.00131096	1.03922	368.803
489.5000	-20.8063	-0.00136446	1.03766	368.689
489.0000	-21.2969	-0.00139476	1.03553	368.543
488.5000	-22.0567	-0.00144829	1.03278	368.343
488.0000	-22.6631	-0.00152535	1.02875	367.925
487.5000	-23.323	-0.00155206	1.02411	367.269
487.0000	-23.9891	-0.00156055	1.02029	366.494
486.5000	-24.5389	-0.00158067	1.01617	365.56
486.0000	-25.4321	-0.00161027	1.0122	364.59
485.5000	-25.9698	-0.00162762	1.00936	363.624
485.0000	-26.3894	-0.00162189	1.0075	362.769
484.5000	-26.8495	-0.00166019	1.00517	362.055
484.0000	-27.6525	-0.00166401	1.0021	361.402
483.5000	-28.0715	-0.00167623	0.998998	360.838
483.0000	-28.3761	-0.00167872	0.995118	360.276
482.5000	-29.0064	-0.00170736	0.991046	359.785
482.0000	-29.5391	-0.00173348	0.98675	359.332
481.5000	-29.9237	-0.00171595	0.98255	358.888
481.0000	-29.9865	-0.00171489	0.978502	358.467
480.5000	-30.4695	-0.00171305	0.974158	358.063
480.0000	-30.4143	-0.00170162	0.969366	357.655
479.5000	-31.0397	-0.00167495	0.964381	357.235
479.0000	-31.3683	-0.00169385	0.957582	356.651
478.5000	-31.5567	-0.00171694	0.950258	355.822
478.0000	-31.8518	-0.00173897	0.943947	354.734
477.5000	-32.0827	-0.00175267	0.940849	353.824
477.0000	-32.4176	-0.00176136	0.938115	353.143
476.5000	-32.7373	-0.00176388	0.931776	352.355
476.0000	-32.88	-0.00174527	0.923859	351.337
475.5000	-32.8183	-0.00175995	0.91561	350.075
475.0000	-33.0119	-0.00175779	0.907343	348.596
474.5000	-33.2453	-0.00175803	0.900149	347.047
474.0000	-33.2979	-0.00177711	0.893309	345.356
473.5000	-33.4355	-0.00176772	0.885758	343.415
473.0000	-33.3744	-0.00175528	0.878189	341.313
472.5000	-33.2777	-0.00174295	0.871809	339.111
472.0000	-33.4584	-0.0017497	0.868079	337.27
471.5000	-33.503	-0.00175202	0.865006	335.776
471.0000	-33.5082	-0.00175675	0.862276	334.847
470.5000	-33.5246	-0.00173997	0.859401	334.211
470.0000	-33.4972	-0.001728	0.856082	333.917
469.5000	-33.5493	-0.00172948	0.849892	333.634
469.0000	-33.384	-0.00174199	0.83918	332.928
468.5000	-33.4395	-0.00174205	0.828384	331.801
468.0000	-33.1943	-0.00172239	0.82025	330.611
467.5000	-33.2856	-0.00169176	0.81424	329.607
467.0000	-33.0451	-0.00170509	0.809572	328.841
466.5000	-33.1155	-0.00169272	0.80541	328.297
466.0000	-32.9327	-0.00167883	0.800294	327.927
465.5000	-32.7794	-0.0016718	0.794842	327.78
465.0000	-32.6471	-0.00169082	0.788779	327.884
464.5000	-32.4832	-0.0016828	0.78107	328.131
464.0000	-32.4939	-0.00169062	0.770896	328.205
463.5000	-32.4597	-0.00167692	0.759191	327.916
463.0000	-32.1924	-0.00164508	0.747813	327.287
462.5000	-32.1149	-0.00164588	0.738127	326.502
462.0000	-31.9906	-0.00163054	0.72977	325.682
461.5000	-31.556	-0.00159059	0.722297	324.975
461.0000	-31.3477	-0.00156897	0.715071	324.408
460.5000	-31.0849	-0.00153528	0.707298	323.944
460.0000	-30.9247	-0.00153465	0.699606	323.575
459.5000	-30.6254	-0.00153893	0.691523	323.261
459.0000	-30.2756	-0.00149893	0.682134	322.864
458.5000	-29.7962	-0.00148648	0.672387	322.389
458.0000	-29.5964	-0.00148322	0.662056	321.747
457.5000	-29.4161	-0.00147264	0.651441	320.867
457.0000	-29.0536	-0.00144481	0.641246	319.795
456.5000	-28.6933	-0.00141824	0.632812	318.771
456.0000	-28.3062	-0.00137386	0.624088	317.838
455.5000	-27.6543	-0.00135027	0.613124	316.711
455.0000	-27.1715	-0.00134683	0.602811	315.465
454.5000	-26.6998	-0.00132713	0.594858	314.315
454.0000	-26.1158	-0.00131345	0.58761	313.411
453.5000	-25.4797	-0.00128031	0.579208	312.705
453.0000	-24.9145	-0.00126602	0.570111	312.004
452.5000	-24.7158	-0.00125101	0.561127	311.269
452.0000	-24.3349	-0.00122234	0.552259	310.485
451.5000	-23.6854	-0.00119253	0.542994	309.667
451.0000	-23.2783	-0.00117289	0.534248	308.891
450.5000	-22.9059	-0.00114376	0.524987	308.05
450.0000	-22.5757	-0.00111061	0.516769	307.261
449.5000	-22.0679	-0.0010734	0.509429	306.592
449.0000	-21.474	-0.00104135	0.502792	306.116
448.5000	-21.2162	-0.00103448	0.494586	305.641
448.0000	-20.6054	-0.00102495	0.485613	305.03
447.5000	-20.1681	-0.00102095	0.478255	304.443
447.0000	-19.904	-0.00100688	0.472985	304.118
446.5000	-19.5901	-0.000982617	0.467092	303.959
446.0000	-19.1806	-0.000976156	0.457936	303.621
445.5000	-18.9358	-0.000974565	0.448398	302.974
445.0000	-18.8138	-0.000961237	0.440119	302.17
444.5000	-18.4976	-0.00094021	0.432272	301.331
444.0000	-18.1607	-0.000943047	0.424776	300.498
443.5000	-17.7426	-0.000933573	0.417464	299.616
443.0000	-17.5034	-0.000915964	0.411148	298.815
442.5000	-16.9464	-0.000897112	0.405121	298.051
442.0000	-16.6138	-0.000884567	0.399642	297.413
441.5000	-16.1766	-0.000868142	0.3934	296.736
441.0000	-15.9317	-0.000862745	0.387632	296.122
440.5000	-15.8547	-0.000854905	0.382071	295.53
440.0000	-15.4322	-0.000831042	0.376013	294.897
439.5000	-15.1466	-0.000823017	0.369838	294.261
439.0000	-14.8853	-0.000804013	0.363061	293.576
438.5000	-14.4471	-0.000781469	0.35594	292.881
438.0000	-14.2621	-0.000776077	0.348887	292.213
437.5000	-13.7684	-0.00074736	0.342338	291.584
437.0000	-13.0519	-0.000728608	0.335249	290.923
436.5000	-12.6975	-0.000714031	0.329696	290.372
436.0000	-12.4796	-0.000695052	0.324494	289.871
435.5000	-12.2067	-0.000680235	0.318706	289.382
435.0000	-11.8374	-0.000663923	0.312627	288.903
434.5000	-11.7065	-0.000661514	0.306713	288.443
434.0000	-11.4	-0.000665484	0.300925	287.96
433.5000	-11.3072	-0.000653058	0.295356	287.469
433.0000	-10.9322	-0.000645853	0.289939	286.941
432.5000	-10.5973	-0.000646251	0.28468	286.423
432.0000	-10.2409	-0.000648471	0.279074	285.878
431.5000	-10.1571	-0.000635342	0.273594	285.335
431.0000	-9.67651	-0.000619865	0.26844	284.809
430.5000	-9.43916	-0.000596432	0.263384	284.281
430.0000	-9.28914	-0.000582152	0.258724	283.776
429.5000	-9.06896	-0.000579185	0.253816	283.253
429.0000	-8.8153	-0.000564524	0.248958	282.73
428.5000	-8.52057	-0.0005531	0.244105	282.216
428.0000	-8.22728	-0.000550871	0.238775	281.685
427.5000	-7.92432	-0.000549709	0.234396	281.22
427.0000	-7.73527	-0.000544557	0.230237	280.764
426.5000	-7.59068	-0.00053886	0.226058	280.298
426.0000	-7.37964	-0.000518122	0.221704	279.798
425.5000	-7.02799	-0.000511368	0.217351	279.259
425.0000	-6.84499	-0.000516311	0.212935	278.706
424.5000	-6.5865	-0.000504711	0.2087	278.137
424.0000	-6.26324	-0.000496417	0.204805	277.581
423.5000	-6.11812	-0.000482708	0.20169	277.099
423.0000	-5.96078	-0.000484059	0.198337	276.662
422.5000	-5.86574	-0.000495781	0.194833	276.269
422.0000	-5.67079	-0.000499791	0.19124	275.897
421.5000	-5.43965	-0.000498631	0.187736	275.542
421.0000	-5.20598	-0.000496033	0.184523	275.209
420.5000	-4.90975	-0.000489597	0.181229	274.873
420.0000	-4.77848	-0.00047563	0.178038	274.531
419.5000	-4.66094	-0.000476456	0.174945	274.18
419.0000	-4.50375	-0.000479164	0.171802	273.835
418.5000	-4.17277	-0.00047839	0.168791	273.538
418.0000	-3.97223	-0.00045864	0.166089	273.246
417.5000	-3.89412	-0.000447996	0.163301	272.965
417.0000	-3.89295	-0.00043586	0.160877	272.703
416.5000	-3.50697	-0.000431265	0.158842	272.511
416.0000	-3.34607	-0.000429101	0.156567	272.361
415.5000	-3.1961	-0.000416051	0.153903	272.191
415.0000	-3.02722	-0.000416737	0.151062	271.969
414.5000	-2.8613	-0.000414423	0.148682	271.715
414.0000	-2.79654	-0.000407097	0.146703	271.455
413.5000	-2.61014	-0.000393634	0.14502	271.203
413.0000	-2.65523	-0.000382369	0.143383	270.968
412.5000	-2.49861	-0.000375197	0.141757	270.758
412.0000	-2.33233	-0.000363389	0.140345	270.576
411.5000	-2.17748	-0.000363383	0.138495	270.379
411.0000	-2.11999	-0.000363973	0.136957	270.213
410.5000	-2.00574	-0.000340836	0.13562	270.058
410.0000	-1.95977	-0.000344751	0.134394	269.912
409.5000	-1.94159	-0.000350551	0.133272	269.787
409.0000	-1.82183	-0.00034869	0.132196	269.685
408.5000	-1.69398	-0.000345127	0.130717	269.575
408.0000	-1.72518	-0.000345213	0.129168	269.473
407.5000	-1.64747	-0.000345432	0.127369	269.342
407.0000	-1.44951	-0.000353405	0.126069	269.229
406.5000	-1.48584	-0.000361052	0.124901	269.113
406.0000	-1.3452	-0.000348148	0.123743	268.994
405.5000	-1.15853	-0.000341224	0.122367	268.861
405.0000	-1.01893	-0.000342195	0.121017	268.708
404.5000	-0.969496	-0.000347434	0.119794	268.547
404.0000	-1.00535	-0.00035177	0.118923	268.362
403.5000	-1.0455	-0.000350422	0.118102	268.157
403.0000	-1.08943	-0.000356472	0.117595	267.937
402.5000	-1.00766	-0.000365417	0.116654	267.695
402.0000	-0.973277	-0.000368079	0.116349	267.48
401.5000	-0.862688	-0.000362846	0.116205	267.249
401.0000	-0.727495	-0.000354658	0.115879	267.042
400.5000	-0.600136	-0.000343901	0.115636	266.853
400.0000	-0.590182	-0.000346333	0.115324	266.69
399.5000	-0.425443	-0.000339206	0.115536	266.538
399.0000	-0.497793	-0.000327916	0.115806	266.424
398.5000	-0.55849	-0.000323113	0.115701	266.311
398.0000	-0.328519	-0.000318613	0.115524	266.217
397.5000	-0.323811	-0.000328607	0.115485	266.16
397.0000	-0.367855	-0.000337564	0.115786	266.128
396.5000	-0.401415	-0.000342858	0.11575	266.116
396.0000	-0.385936	-0.000345444	0.115767	266.125
395.5000	-0.383896	-0.000342176	0.115524	266.169
395.0000	-0.395766	-0.00035199	0.115373	266.236
394.5000	-0.197721	-0.000346242	0.115643	266.353
394.0000	-0.209709	-0.000341067	0.115756	266.48
393.5000	-0.245555	-0.000348398	0.115579	266.623
393.0000	-0.367748	-0.000355772	0.115157	266.771
392.5000	-0.307479	-0.000351307	0.115045	266.922
392.0000	-0.175908	-0.000367462	0.115162	267.058
391.5000	-0.224462	-0.000369917	0.115454	267.175
391.0000	-0.329256	-0.000384927	0.115755	267.294
390.5000	-0.29547	-0.000385694	0.11588	267.408
390.0000	-0.262865	-0.000376175	0.116013	267.514
389.5000	-0.266242	-0.000354829	0.116385	267.602
389.0000	-0.0598302	-0.0003496	0.116961	267.686
388.5000	-0.0603359	-0.00034374	0.117232	267.76
388.0000	-0.0136123	-0.000334023	0.117561	267.845
387.5000	-0.037361	-0.00032773	0.118179	267.924
387.0000	0.0198369	-0.000314969	0.119217	267.996
386.5000	0.111464	-0.000310178	0.120025	268.058
386.0000	0.109848	-0.000304782	0.120882	268.109
385.5000	0.124731	-0.000300382	0.121774	268.157
385.0000	0.281836	-0.000290461	0.122692	268.203
384.5000	0.131276	-0.000291309	0.123686	268.253
384.0000	0.158107	-0.000282859	0.124785	268.3
383.5000	0.203581	-0.000270823	0.125697	268.355
383.0000	0.373829	-0.000261273	0.126466	268.409
382.5000	0.64343	-0.000254955	0.127178	268.451
382.0000	0.68956	-0.000252851	0.128404	268.5
381.5000	0.669767	-0.000260532	0.129719	268.546
381.0000	0.609428	-0.000254145	0.130882	268.607
380.5000	0.53138	-0.000260561	0.131901	268.671
380.0000	0.544494	-0.000262527	0.133235	268.742
379.5000	0.626945	-0.000260711	0.134613	268.813
379.0000	0.609137	-0.000271589	0.135512	268.875
378.5000	0.561669	-0.000279463	0.136173	268.943
378.0000	0.608252	-0.000277658	0.136844	269.007
377.5000	0.740633	-0.000295377	0.137659	269.069
377.0000	0.775278	-0.000285502	0.138318	269.119
376.5000	0.681207	-0.000290586	0.139191	269.164
376.0000	0.77029	-0.000292222	0.139933	269.191
375.5000	0.679865	-0.000300872	0.140449	269.216
375.0000	0.715375	-0.000303127	0.141029	269.237
374.5000	0.568544	-0.000305463	0.141547	269.246
374.0000	0.474471	-0.000304291	0.142079	269.252
373.5000	0.493348	-0.000309947	0.142584	269.264
373.0000	0.473608	-0.000319795	0.142908	269.28
372.5000	0.533753	-0.000316925	0.143183	269.285
372.0000	0.754437	-0.000304572	0.14358	269.294
371.5000	0.738342	-0.000307636	0.14386	269.301
371.0000	0.730052	-0.000317596	0.144355	269.312
370.5000	0.838048	-0.000299247	0.145043	269.335
370.0000	0.848694	-0.000296503	0.145524	269.354
369.5000	0.688089	-0.00030807	0.145922	269.372
369.0000	0.738545	-0.000296079	0.146495	269.406
368.5000	0.813865	-0.000300027	0.147376	269.462
368.0000	0.763725	-0.000297844	0.148037	269.524
367.5000	0.750831	-0.00029002	0.148767	269.586
367.0000	0.915231	-0.000295585	0.149678	269.649
366.5000	0.97128	-0.000299223	0.150462	269.729
366.0000	0.883455	-0.000306376	0.151255	269.82
365.5000	0.974697	-0.000306409	0.152009	269.91
365.0000	1.1733	-0.000297375	0.152496	269.989
364.5000	1.25626	-0.000297895	0.153273	270.072
364.0000	1.266	-0.000308013	0.154026	270.171
363.5000	1.20321	-0.000306284	0.154987	270.26
363.0000	1.27015	-0.000320051	0.155906	270.35
362.5000	1.29941	-0.000315103	0.156758	270.446
362.0000	1.47869	-0.00031859	0.157511	270.537
361.5000	1.67124	-0.000300973	0.158721	270.651
361.0000	1.6956	-0.000297799	0.159747	270.752
360.5000	1.6816	-0.000306511	0.160458	270.845
360.0000	1.85214	-0.000293256	0.161235	270.935
359.5000	2.03086	-0.000306126	0.16202	271.033
359.0000	2.11285	-0.000308573	0.162542	271.128
358.5000	2.24572	-0.000295564	0.162781	271.208
358.0000	2.2234	-0.000286976	0.162989	271.283
357.5000	2.31962	-0.000271567	0.163353	271.372
357.0000	2.29789	-0.000271723	0.163963	271.461
356.5000	2.31728	-0.000272386	0.164803	271.542
356.0000	2.37951	-0.000275955	0.16522	271.617
355.5000	2.44577	-0.000280959	0.165543	271.687
355.0000	2.60264	-0.00028131	0.165802	271.761
354.5000	2.66252	-0.000269651	0.166062	271.837
354.0000	2.73333	-0.000269353	0.166451	271.914
353.5000	2.69276	-0.000269612	0.166746	271.983
353.0000	2.6447	-0.000273566	0.166954	272.051
352.5000	2.68639	-0.000273111	0.167336	272.133
352.0000	2.76027	-0.000284219	0.167781	272.219
351.5000	2.63988	-0.000291183	0.168126	272.293
351.0000	2.61353	-0.00029163	0.168814	272.367
350.5000	2.66704	-0.000300605	0.169638	272.444
350.0000	2.5668	-0.000308735	0.17073	272.54
349.5000	2.66085	-0.000322514	0.171858	272.633
349.0000	2.66341	-0.000318344	0.172984	272.717
348.5000	2.61541	-0.000316821	0.174125	272.796
348.0000	2.68726	-0.000328816	0.175007	272.874
347.5000	2.55328	-0.000327865	0.176222	272.957
347.0000	2.48371	-0.000325039	0.177431	273.036
346.5000	2.32541	-0.000337318	0.178414	273.113
346.0000	2.41701	-0.000348434	0.179338	273.191
345.5000	2.43535	-0.000353165	0.180564	273.28
345.0000	2.44145	-0.00035408	0.181853	273.372
344.5000	2.59993	-0.000353534	0.183117	273.461
344.0000	2.54067	-0.000359278	0.184429	273.538
343.5000	2.57504	-0.00036823	0.185442	273.612
343.0000	2.68129	-0.000382567	0.186289	273.681
342.5000	2.79854	-0.000370651	0.187145	273.763
342.0000	2.82971	-0.000364917	0.187907	273.84
341.5000	2.80637	-0.000364821	0.18874	273.915
341.0000	2.8755	-0.000365146	0.189825	273.993
340.5000	2.96809	-0.000376151	0.190633	274.072
340.0000	2.98572	-0.000377409	0.191497	274.158
339.5000	3.01459	-0.000381035	0.1921	274.245
339.0000	2.98984	-0.000381843	0.193069	274.339
338.5000	3.00262	-0.000389248	0.19425	274.445
338.0000	3.03441	-0.000378775	0.195303	274.545
337.5000	2.96617	-0.000366011	0.196169	274.637
337.0000	3.04025	-0.000378923	0.19695	274.73
336.5000	3.01515	-0.000393719	0.197929	274.821
336.0000	3.04888	-0.000407143	0.198729	274.91
335.5000	3.20695	-0.000401891	0.199531	274.996
335.0000	3.10587	-0.000398782	0.200539	275.101
334.5000	3.18153	-0.000404179	0.201473	275.209
334.0000	3.244	-0.000419254	0.202551	275.318
333.5000	3.31538	-0.00043187	0.204159	275.443
333.0000	3.32572	-0.000431453	0.205373	275.564
332.5000	3.2446	-0.000453074	0.206232	275.68
332.0000	3.33189	-0.000450359	0.207176	275.796
331.5000	3.54289	-0.000461365	0.208395	275.917
331.0000	3.52419	-0.00047148	0.209821	276.054
330.5000	3.5285	-0.00047829	0.210779	276.169
330.0000	3.48169	-0.000487021	0.211834	276.284
329.5000	3.31254	-0.000500398	0.213044	276.414
329.0000	3.25868	-0.000542006	0.214206	276.549
328.5000	3.20705	-0.000549764	0.215424	276.678
328.0000	3.12077	-0.000545598	0.216456	276.799
327.5000	3.09077	-0.000549263	0.217732	276.925
327.0000	3.17171	-0.000555171	0.219223	277.047
326.5000	3.10911	-0.000569218	0.220837	277.177
326.0000	2.88361	-0.000585569	0.222678	277.325
325.5000	2.76751	-0.000588998	0.22437	277.48
325.0000	2.53077	-0.000606372	0.225542	277.618
324.5000	2.59871	-0.000622087	0.227046	277.773
324.0000	2.55298	-0.000621249	0.228928	277.945
323.5000	2.30801	-0.000628368	0.230963	278.121
323.0000	1.95081	-0.000648133	0.232784	278.301
322.5000	1.9435	-0.000650799	0.234428	278.47
322.0000	1.78735	-0.000651644	0.236156	278.659
321.5000	1.88832	-0.000661187	0.238143	278.849
321.0000	1.91881	-0.000682421	0.240013	279.026
320.5000	1.91612	-0.000677835	0.242047	279.212
320.0000	1.84668	-0.000674068	0.243769	279.385
319.5000	1.8961	-0.000694687	0.245677	279.573
319.0000	1.76292	-0.000698927	0.247552	279.783
318.5000	1.68133	-0.000715098	0.249409	280.001
318.0000	1.64412	-0.000724819	0.251175	280.205
317.5000	1.75204	-0.00073615	0.252848	280.382
317.0000	1.82427	-0.00074337	0.254888	280.565
316.5000	1.75409	-0.000755283	0.257074	280.748
316.0000	1.68133	-0.00077438	0.259361	280.943
315.5000	1.6918	-0.000788219	0.261324	281.142
315.0000	1.69879	-0.000799651	0.263468	281.368
314.5000	1.62512	-0.000801035	0.26549	281.584
314.0000	1.66576	-0.000809402	0.267778	281.814
313.5000	1.59274	-0.000829581	0.270095	282.044
313.0000	1.59275	-0.000815192	0.272586	282.3
312.5000	1.47927	-0.000818813	0.274975	282.558
312.0000	1.2793	-0.000843671	0.277565	282.816
311.5000	1.21513	-0.000848995	0.280205	283.091
311.0000	1.08003	-0.000847479	0.283182	283.374
310.5000	0.833581	-0.000854424	0.28606	283.689
310.0000	0.824636	-0.000852713	0.289038	283.992
309.5000	0.755674	-0.000860379	0.292136	284.304
309.0000	0.473649	-0.000857237	0.295622	284.658
308.5000	0.329591	-0.000866202	0.298977	285.03
308.0000	0.183288	-0.00086338	0.302324	285.396
307.5000	0.0526534	-0.00088072	0.306395	285.823
307.0000	-0.0161556	-0.000887216	0.310346	286.219
306.5000	0.1441	-0.000892733	0.314731	286.658
306.0000	0.313239	-0.000903666	0.319321	287.101
305.5000	0.0556246	-0.000922686	0.324179	287.599
305.0000	0.0136651	-0.000927695	0.329101	288.091
304.5000	-0.202345	-0.000949476	0.334905	288.653
304.0000	-0.150532	-0.000954176	0.341249	289.257
303.5000	-0.348097	-0.000954647	0.347663	289.87
303.0000	-0.59051	-0.00097004	0.354475	290.544
302.5000	-0.629337	-0.00098012	0.361553	291.25
302.0000	-0.57672	-0.000990279	0.369176	291.989
301.5000	-0.752766	-0.00101044	0.377355	292.779
301.0000	-0.741281	-0.00102251	0.385754	293.611
300.5000	-0.823856	-0.00103996	0.393252	294.359
300.0000	-1.00991	-0.00105807	0.402571	295.257
299.5000	-1.00465	-0.00107529	0.411484	296.129
299.0000	-1.01264	-0.00107425	0.420169	296.996
298.5000	-1.38369	-0.00108268	0.429319	297.92
298.0000	-1.57841	-0.00110264	0.438091	298.799
297.5000	-1.7692	-0.00110559	0.44742	299.728
297.0000	-1.69858	-0.00109893	0.456157	300.557
296.5000	-1.945	-0.00109756	0.464494	301.368
296.0000	-1.95182	-0.00109777	0.472807	302.184
295.5000	-1.97131	-0.00108854	0.481159	302.977
295.0000	-1.96589	-0.00108374	0.488985	303.703
294.5000	-1.89152	-0.00108626	0.49678	304.441
294.0000	-2.07593	-0.00108695	0.504416	305.207
293.5000	-2.10354	-0.00108923	0.510674	305.853
293.0000	-2.06828	-0.00108184	0.517281	306.528
292.5000	-2.10309	-0.00106719	0.523877	307.224
292.0000	-2.05161	-0.0010416	0.529782	307.865
291.5000	-1.98334	-0.00103371	0.535735	308.499
291.0000	-2.05021	-0.00102711	0.541627	309.125
290.5000	-2.02775	-0.00101946	0.547838	309.777
290.0000	-1.83725	-0.00099139	0.55377	310.383
289.5000	-2.16373	-0.000974846	0.559096	310.959
289.0000	-2.11745	-0.000967257	0.564242	311.524
288.5000	-1.99316	-0.000957676	0.569881	312.152
288.0000	-1.91173	-0.000942311	0.57538	312.77
287.5000	-1.85209	-0.00093495	0.580994	313.412
287.0000	-2.01312	-0.000931591	0.586574	314.093
286.5000	-2.16145	-0.000915512	0.591865	314.767
286.0000	-2.2023	-0.000900618	0.597394	315.429
285.5000	-2.27722	-0.000885743	0.603308	316.078
285.0000	-2.53772	-0.000854731	0.609549	316.766
284.5000	-2.66956	-0.000845524	0.615229	317.4
284.0000	-2.78028	-0.000822947	0.62135	318.079
283.5000	-2.97816	-0.000802843	0.627677	318.767
283.0000	-3.13395	-0.000782958	0.633755	319.436
282.5000	-3.31477	-0.000759037	0.640413	320.162
282.0000	-3.32267	-0.0007286	0.646981	320.914
281.5000	-3.602	-0.000729997	0.653424	321.657
281.0000	-3.73468	-0.000733023	0.660165	322.412
280.5000	-3.91459	-0.000714068	0.667408	323.244
280.0000	-4.35096	-0.000706567	0.674934	324.104
279.5000	-4.62381	-0.000700188	0.682682	324.999
279.0000	-5.05507	-0.000686507	0.690304	325.892
278.5000	-5.11785	-0.000658257	0.698772	326.869
278.0000	-5.18334	-0.00066077	0.708458	327.934
277.5000	-5.40187	-0.000638601	0.717469	328.93
277.0000	-5.52088	-0.00062018	0.727023	330.017
276.5000	-5.63488	-0.000583197	0.737128	331.179
276.0000	-5.79398	-0.000566696	0.746747	332.278
275.5000	-6.35303	-0.000558694	0.758146	333.55
275.0000	-6.43798	-0.000545654	0.770051	334.886
274.5000	-6.58928	-0.000549252	0.782239	336.28
274.0000	-6.86334	-0.000534194	0.795497	337.827
273.5000	-7.26911	-0.000552565	0.808429	339.302
273.0000	-7.53571	-0.00053047	0.822579	340.915
272.5000	-7.80968	-0.000501103	0.837476	342.625
272.0000	-8.33622	-0.00045844	0.852914	344.419
271.5000	-8.5733	-0.000442653	0.869898	346.4
271.0000	-8.94331	-0.000442168	0.887287	348.396
270.5000	-9.0014	-0.00043298	0.90566	350.494
270.0000	-9.07521	-0.000413144	0.924537	352.695
269.5000	-9.10778	-0.000372407	0.944247	355.038
269.0000	-9.43307	-0.000340603	0.964002	357.381
268.5000	-9.81744	-0.000321237	0.985892	359.975
268.0000	-10.4191	-0.000341766	1.00888	362.699
267.5000	-10.8061	-0.000347813	1.03278	365.554
267.0000	-11.1296	-0.000313573	1.05876	368.712
266.5000	-11.2564	-0.00028319	1.08566	372.024
266.0000	-10.8503	-0.000246908	1.11127	375.141
265.5000	-11.1746	-0.000217401	1.13929	378.543
265.0000	-11.388	-0.000195249	1.16912	382.238
264.5000	-11.0427	-0.000171849	1.19792	385.861
264.0000	-11.6346	-0.000145139	1.227	389.548
263.5000	-11.2993	-0.000121935	1.25837	393.522
263.0000	-11.4511	-0.000104659	1.287	397.182
262.5000	-11.0951	-9.35164E-005	1.31845	401.281
262.0000	-11.0274	-7.34185E-005	1.3484	405.264
261.5000	-10.6876	-8.28034E-005	1.37875	409.297
261.0000	-10.5081	-9.56541E-005	1.40822	413.191
260.5000	-9.99193	-0.000149264	1.43942	417.366
260.0000	-9.17404	-0.00015539	1.47095	421.639
259.5000	-8.87168	-0.00014612	1.50281	426.01
259.0000	-8.06748	-0.000155776	1.53489	430.478
258.5000	-8.00687	-0.000193928	1.56805	435.085
258.0000	-8.12191	-0.000234224	1.60196	439.833
257.5000	-7.12741	-0.000205854	1.63497	444.488
257.0000	-6.72055	-0.000220063	1.67083	449.586
256.5000	-6.43833	-0.000199164	1.70608	454.626
256.0000	-6.65962	-0.000277197	1.74459	460.153
255.5000	-6.20959	-0.000318645	1.78459	465.923
255.0000	-6.16005	-0.000357297	1.82591	471.952
254.5000	-6.7728	-0.000327597	1.86658	477.94
254.0000	-6.53833	-0.000310714	1.90857	484.17
253.5000	-6.87203	-0.000380181	1.95704	491.362
253.0000	-6.8446	-0.000358673	2.00199	498.135
252.5000	-6.49556	-0.000261599	2.07015	508.6
252.0000	-7.41337	-0.000165193	2.12812	517.608
251.5000	-6.87148	-0.000139976	2.18012	525.766
251.0000	-7.94622	-0.000132223	2.2339	534.25
250.5000	-7.16445	-9.50895E-005	2.28856	543.013
250.0000	-6.11112	-0.000151198	2.34133	551.605
249.5000	-6.46748	-0.00019354	2.39518	560.49
249.0000	-8.66875	-0.000184834	2.45303	570.147
248.5000	-7.67078	-0.000293079	2.50941	579.649
248.0000	-8.65653	-0.000380965	2.5699	589.994
247.5000	-8.10205	-0.000365451	2.62869	600.218
247.0000	-7.72359	-0.000456024	2.69202	611.404
246.5000	-4.75045	-0.000602223	2.7574	623.094
246.0000	-5.52665	-0.000591789	2.82463	635.269
245.5000	-8.32494	-0.000476166	2.8962	648.526
245.0000	-8.43954	-0.000462116	2.96949	662.332
244.5000	-8.0232	-0.000511901	3.04429	676.658
244.0000	-7.52813	-0.000967782	3.12024	691.507
243.5000	-6.45275	-0.000876496	3.19312	706.052
243.0000	-6.42563	-0.00085519	3.26615	720.946
242.5000	-8.4581	-0.00113713	3.34632	737.645
242.0000	-8.38445	-0.00094697	3.41477	752.197
241.5000	-8.16327	-0.000569575	3.48921	768.34
241.0000	-8.92933	-0.000499088	3.55481	782.862
240.5000	-11.1806	-0.000286213	3.62428	798.655
240.0000	-11.9187	-0.000228707	3.68421	812.573
239.5000	-11.8144	-0.000116138	3.74954	828.086
239.0000	-13.132	-6.1262E-005	3.8022	840.843
238.5000	-12.6757	0.000399199	3.85332	853.527
238.0000	-12.612	0.000346289	3.90178	865.938
237.5000	-11.1269	0.000158505	3.94108	876.323
237.0000	-10.3627	0.000372242	3.97795	886.358
236.5000	-12.4076	0.000509544	4.00992	895.374
236.0000	-11.4833	0.000640592	4.03603	903.018
235.5000	-13.3125	0.00112773	4.06067	910.702
235.0000	-15.5643	0.00094965	4.07442	915.276
234.5000	-15.2553	0.000877577	4.08658	919.576
234.0000	-10.8822	0.00114086	4.09685	923.526
233.5000	-12.812	0.00117391	4.10508	927.15
233.0000	-10.782	0.00104828	4.1106	930.246
232.5000	-10.2631	0.00095485	4.11285	932.562
232.0000	-7.50143	0.000740295	4.11246	934.606
231.5000	-9.03494	0.00080344	4.11006	935.856
231.0000	-7.18842	0.000633276	4.10607	936.967
230.5000	-10.0399	0.00076315	4.10045	937.795
230.0000	-11.3384	0.000687572	4.09371	938.361
229.5000	-11.0095	0.000717883	4.08598	938.82
229.0000	-8.29474	0.000679018	4.07746	939.15
228.5000	-8.31172	0.000670251	4.06851	939.363
228.0000	-8.24536	0.000381679	4.05978	939.544
227.5000	-9.9299	0.000562668	4.04984	939.697
227.0000	-9.89313	0.000444902	4.03964	939.82
226.5000	-10.3452	0.000360894	4.02872	939.917
226.0000	-10.6665	0.000154257	4.01838	939.974
225.5000	-13.8644	-0.000173905	4.00721	940.025
225.0000	-14.5095	-0.000163905	3.99554	940.11
224.5000	-14.9147	-1.93365E-005	3.98343	940.16
224.0000	-15.3375	-0.000176764	3.97133	940.198
223.5000	-15.3937	0.000141715	3.95969	940.281
223.0000	-10.3823	0.000260394	3.94814	940.345
222.5000	-10.437	0.000536248	3.93393	940.453
222.0000	-8.38081	0.000237397	3.92074	940.519
221.5000	-6.94728	0.000218479	3.90672	940.558
221.0000	-9.49426	-8.27621E-005	3.89483	940.62
220.5000	-4.15563	0.000270901	3.88261	940.631
220.0000	-6.37079	0.000434659	3.86975	940.657

##### Extended Information
[Comments]
Sample name	JS187+JS190_5E-5_H2O_100-0_100EQDT+72H
Comment
User
Division
Company	Labo systeme complexes hors equilibre

[Detailed Information]
Creation date	1/26/2024 11:07 AM

Data array type	Linear data array * 4
Horizontal axis	Wavelength [nm]
Vertical axis(1)	CD [mdeg]
Vertical axis(2)	LD [dOD]
Vertical axis(3)	Abs
Vertical axis(4)	HT [V]
Start	700 nm
End	220 nm
Data interval	0.5 nm
Data points	961     

[Measurement Information]
Instrument name	CD Jasco
Model name	J-1500
Serial No.	A005261638

Detector	PM-539
Detector S/N	A0052PM539
  Lock-in amp.	X mode
  HT volt	Auto

Detector	EXPML-535
Detector S/N	A0001
  Lock-in amp.	X mode
  HT volt	Auto

Measurement date	1/26/2024 11:06 AM

Overload detect	1
Photometric mode	CD, LD, Abs, HT
Measure range	700 - 220 nm
Data pitch	0.5 nm
CD scale	200 mdeg/1.0 dOD
FL scale	200 mdeg/1.0 dOD
D.I.T.	1 sec
Bandwidth	1.00 nm
Start mode	Immediately
Scanning speed	500 nm/min
Baseline correction	Baseline
Shutter control	Auto


