TITLE	JS187+JS190_5E-5_H2O_58-42_100EQDT+72H
DATA TYPE	
ORIGIN	JASCO
OWNER	
DATE	24/01/26
TIME	09:49:24
SPECTROMETER/DATA SYSTEM	
LOCALE	1033
RESOLUTION	
DELTAX	-0.5
XUNITS	NANOMETERS
YUNITS	CD [mdeg]
Y2UNITS	LD [dOD]
Y3UNITS	ABSORBANCE
Y4UNITS	HT [V]
FIRSTX	  700.0000
LASTX	  220.0000
NPOINTS	     961
FIRSTY	     0.91417
MAXY	    19.27898
MINY	    -7.15192
XYDATA
700.0000	0.914171	-0.000247421	-0.00921548	303.465
699.5000	0.621687	-0.000251869	-0.00993124	303.192
699.0000	0.493127	-0.000255497	-0.0107114	302.868
698.5000	0.608798	-0.000243375	-0.0110264	302.504
698.0000	0.585125	-0.000264611	-0.0114548	302.13
697.5000	0.482283	-0.000250484	-0.0124316	301.729
697.0000	0.386075	-0.000226547	-0.0137248	301.28
696.5000	0.393945	-0.0002324	-0.0142816	300.818
696.0000	0.366787	-0.00021565	-0.0143188	300.288
695.5000	0.809713	-0.000215322	-0.0144002	299.755
695.0000	0.89278	-0.000240521	-0.0139891	299.271
694.5000	0.643568	-0.000258941	-0.0137282	298.793
694.0000	0.763982	-0.000246267	-0.012479	298.332
693.5000	0.809711	-0.000250719	-0.0110105	297.896
693.0000	0.97655	-0.000248201	-0.0089398	297.515
692.5000	0.89186	-0.000268382	-0.00670292	297.174
692.0000	0.963413	-0.000258813	-0.00436905	296.882
691.5000	1.07588	-0.000276282	-0.00177931	296.624
691.0000	1.11195	-0.000282916	0.000621795	296.366
690.5000	0.98921	-0.000295217	0.0022975	296.145
690.0000	0.977821	-0.000305659	0.00351239	295.929
689.5000	0.81558	-0.000315295	0.00485033	295.747
689.0000	0.776688	-0.000325208	0.00665798	295.593
688.5000	0.851695	-0.000316646	0.00821824	295.495
688.0000	0.832068	-0.000301381	0.0105587	295.497
687.5000	0.63106	-0.000313146	0.0135226	295.605
687.0000	0.536076	-0.000308784	0.0162383	295.769
686.5000	0.432606	-0.000317048	0.0185968	295.989
686.0000	0.600121	-0.000330138	0.0197685	296.23
685.5000	0.615424	-0.000318493	0.0201494	296.5
685.0000	0.487715	-0.000339338	0.0199336	296.749
684.5000	0.473643	-0.000325063	0.0191032	296.983
684.0000	0.683393	-0.000316384	0.0177598	297.207
683.5000	0.662278	-0.000328641	0.0168513	297.434
683.0000	0.802944	-0.000305924	0.0158392	297.664
682.5000	0.643429	-0.000304639	0.0154021	297.903
682.0000	1.06075	-0.000291312	0.0148222	298.167
681.5000	1.16839	-0.000308089	0.0148411	298.439
681.0000	1.27463	-0.000292609	0.0148946	298.728
680.5000	1.58452	-0.000286921	0.0150483	299.002
680.0000	1.33283	-0.000298573	0.0142042	299.251
679.5000	1.38602	-0.000300371	0.0127263	299.434
679.0000	1.26088	-0.000284626	0.00987856	299.533
678.5000	1.37889	-0.000281499	0.0080278	299.592
678.0000	1.49296	-0.000259781	0.00619575	299.613
677.5000	1.58291	-0.000239668	0.00503318	299.606
677.0000	1.43011	-0.000237536	0.00451584	299.588
676.5000	1.41333	-0.000242076	0.00478504	299.574
676.0000	1.33209	-0.000252908	0.00495828	299.548
675.5000	1.34614	-0.000250959	0.0051612	299.524
675.0000	1.1465	-0.000254394	0.00563459	299.511
674.5000	1.17233	-0.000257033	0.00656431	299.511
674.0000	1.00316	-0.000239888	0.00749546	299.513
673.5000	1.02814	-0.000238389	0.00851992	299.524
673.0000	0.819092	-0.00022789	0.00869761	299.55
672.5000	0.450152	-0.000253749	0.00874356	299.574
672.0000	0.708582	-0.000232659	0.00911586	299.605
671.5000	0.650438	-0.000234746	0.00996459	299.639
671.0000	0.565694	-0.000242226	0.0108543	299.68
670.5000	0.801431	-0.000233428	0.012119	299.738
670.0000	0.703875	-0.000224378	0.0130987	299.793
669.5000	1.00288	-0.000223162	0.0134355	299.84
669.0000	1.03507	-0.000232166	0.013941	299.901
668.5000	1.35091	-0.000233946	0.0144209	299.963
668.0000	1.1872	-0.000244266	0.0148418	300.053
667.5000	1.18215	-0.000241405	0.0150895	300.142
667.0000	1.17527	-0.000235504	0.0151577	300.242
666.5000	1.24223	-0.000246517	0.0151285	300.332
666.0000	1.26669	-0.000239779	0.0144597	300.436
665.5000	1.133	-0.000260405	0.0142332	300.542
665.0000	1.25326	-0.000259537	0.0148309	300.651
664.5000	1.48541	-0.000244972	0.0157166	300.758
664.0000	1.27877	-0.000242782	0.0159309	300.866
663.5000	1.25464	-0.000251359	0.0150193	300.961
663.0000	1.57374	-0.000257415	0.0149167	301.052
662.5000	1.38098	-0.000245742	0.0146303	301.13
662.0000	1.36337	-0.000265694	0.0142142	301.192
661.5000	1.05994	-0.000272794	0.0143446	301.243
661.0000	0.927376	-0.000272337	0.0139212	301.267
660.5000	0.759593	-0.000258235	0.0133919	301.29
660.0000	1.09024	-0.000264176	0.0130702	301.298
659.5000	0.827807	-0.00025587	0.0123138	301.296
659.0000	0.827957	-0.000265173	0.0117736	301.279
658.5000	0.620687	-0.000269587	0.0112776	301.232
658.0000	0.555033	-0.000273765	0.0112705	301.18
657.5000	0.741995	-0.000278602	0.0107745	301.116
657.0000	0.449243	-0.000278205	0.0111002	301.028
656.5000	0.369735	-0.000296831	0.0101576	300.902
656.0000	0.525349	-0.00029525	0.00920948	300.752
655.5000	0.707367	-0.00031196	0.00966024	300.584
655.0000	0.637843	-0.000294225	0.00939918	300.4
654.5000	0.638485	-0.000297527	0.00854508	300.208
654.0000	0.601672	-0.000303353	0.00838896	300.006
653.5000	0.373051	-0.000308443	0.00899321	299.817
653.0000	0.416909	-0.000303804	0.00991589	299.639
652.5000	0.375823	-0.000284404	0.0108839	299.492
652.0000	0.414024	-0.000289538	0.0120772	299.375
651.5000	0.384771	-0.000265898	0.0136298	299.274
651.0000	0.625964	-0.00027552	0.015823	299.217
650.5000	0.526813	-0.00025768	0.0172189	299.182
650.0000	0.86017	-0.000244719	0.019032	299.171
649.5000	0.735139	-0.000241845	0.0203708	299.19
649.0000	0.767753	-0.00022232	0.0219536	299.231
648.5000	1.14822	-0.000222588	0.0226578	299.3
648.0000	1.25253	-0.000217127	0.0237328	299.393
647.5000	1.08465	-0.000207055	0.0246944	299.502
647.0000	0.86899	-0.000202181	0.0252611	299.646
646.5000	0.89694	-0.000206908	0.0258159	299.81
646.0000	1.19736	-0.000215153	0.0272375	299.974
645.5000	1.15089	-0.000197397	0.0278774	300.136
645.0000	1.13116	-0.000200812	0.0273426	300.283
644.5000	1.1084	-0.000200077	0.0271771	300.418
644.0000	1.06118	-0.000207611	0.0271024	300.523
643.5000	0.965725	-0.000233919	0.0266801	300.608
643.0000	1.08741	-0.000226812	0.0260034	300.641
642.5000	1.12026	-0.000218546	0.0254957	300.661
642.0000	1.35556	-0.000203115	0.0251682	300.661
641.5000	1.35854	-0.000216134	0.0248366	300.653
641.0000	1.4427	-0.00022306	0.0247947	300.626
640.5000	1.41958	-0.000226549	0.0251045	300.581
640.0000	1.41376	-0.00020839	0.0256327	300.524
639.5000	1.26861	-0.000238471	0.0265496	300.461
639.0000	1.35105	-0.000238573	0.027237	300.392
638.5000	1.44455	-0.00025487	0.0282634	300.302
638.0000	1.40909	-0.000249136	0.028882	300.228
637.5000	1.49847	-0.000254741	0.0291709	300.139
637.0000	1.57636	-0.000247404	0.0303865	300.054
636.5000	1.70811	-0.00026743	0.0313265	299.972
636.0000	1.81251	-0.000289086	0.0316305	299.896
635.5000	2.02424	-0.000269979	0.0321373	299.831
635.0000	1.697	-0.000266224	0.0331782	299.781
634.5000	1.5715	-0.000289064	0.0341763	299.741
634.0000	1.19362	-0.000305039	0.034916	299.687
633.5000	0.911743	-0.000308325	0.0352716	299.636
633.0000	0.822347	-0.000309097	0.0361195	299.585
632.5000	0.689484	-0.000306131	0.0364122	299.543
632.0000	0.663069	-0.000309453	0.0368348	299.513
631.5000	0.66191	-0.000304214	0.0375664	299.484
631.0000	1.08509	-0.000290263	0.0383153	299.463
630.5000	0.767217	-0.000299389	0.038927	299.429
630.0000	0.650747	-0.000292684	0.0395878	299.393
629.5000	0.758676	-0.000295802	0.0403304	299.351
629.0000	0.734203	-0.000262552	0.0409113	299.317
628.5000	0.723407	-0.000276256	0.0413083	299.284
628.0000	0.696385	-0.000258489	0.0418842	299.242
627.5000	0.604864	-0.000236324	0.0428646	299.205
627.0000	0.611814	-0.000242787	0.0432798	299.164
626.5000	0.713803	-0.000240394	0.0432887	299.114
626.0000	0.758978	-0.000250762	0.0435389	299.079
625.5000	0.907067	-0.000242039	0.0445168	299.053
625.0000	0.975457	-0.000252881	0.0455846	299.03
624.5000	1.02675	-0.000269091	0.0466469	299.008
624.0000	1.18522	-0.000258003	0.0475881	298.996
623.5000	1.03882	-0.000249455	0.0485582	298.991
623.0000	0.731675	-0.00025483	0.0495258	299.002
622.5000	0.651871	-0.000255368	0.0506007	299.02
622.0000	0.742625	-0.00023593	0.0515169	299.059
621.5000	0.802795	-0.000236887	0.0525809	299.119
621.0000	0.782944	-0.000240967	0.0535995	299.179
620.5000	0.844545	-0.00027116	0.0543855	299.253
620.0000	0.822386	-0.000254128	0.0550586	299.339
619.5000	0.790319	-0.000264661	0.0560217	299.444
619.0000	0.923203	-0.000274238	0.0574488	299.566
618.5000	0.794469	-0.000298829	0.0593737	299.71
618.0000	0.858621	-0.000282194	0.0611918	299.846
617.5000	1.20464	-0.000286315	0.0621028	299.999
617.0000	0.948108	-0.00026891	0.0627467	300.159
616.5000	1.0907	-0.000264129	0.0634287	300.318
616.0000	1.00245	-0.000268632	0.0644756	300.468
615.5000	0.986682	-0.00030946	0.0651642	300.622
615.0000	1.46802	-0.000312464	0.0657819	300.778
614.5000	1.6769	-0.000304349	0.0662304	300.935
614.0000	1.71365	-0.000327931	0.0665851	301.08
613.5000	1.76413	-0.000329777	0.0672675	301.234
613.0000	1.62858	-0.000327744	0.0679539	301.404
612.5000	1.61365	-0.00033317	0.0685306	301.555
612.0000	1.79519	-0.000339199	0.0693138	301.713
611.5000	1.85063	-0.000342992	0.0703663	301.867
611.0000	1.66235	-0.000360148	0.0709747	302.029
610.5000	1.83486	-0.000356459	0.0713236	302.173
610.0000	1.88638	-0.000361119	0.0714639	302.304
609.5000	1.70809	-0.00037117	0.0723339	302.443
609.0000	1.78102	-0.000372381	0.073145	302.574
608.5000	1.86834	-0.000372545	0.0743577	302.707
608.0000	1.98784	-0.000372969	0.075121	302.828
607.5000	1.8121	-0.000373351	0.0754265	302.944
607.0000	1.8608	-0.00036069	0.076169	303.067
606.5000	1.61387	-0.000374833	0.0769065	303.177
606.0000	1.53023	-0.000360821	0.0785584	303.307
605.5000	1.36367	-0.000345514	0.0796746	303.416
605.0000	1.2955	-0.000346459	0.0811035	303.52
604.5000	1.19581	-0.000329474	0.0822701	303.62
604.0000	0.997567	-0.000322165	0.0836081	303.71
603.5000	0.692744	-0.000331033	0.0850724	303.796
603.0000	1.04365	-0.000324339	0.0860932	303.878
602.5000	1.11019	-0.000319442	0.0876428	303.965
602.0000	1.36431	-0.00030899	0.0893885	304.054
601.5000	1.29063	-0.000322363	0.0909735	304.14
601.0000	1.3143	-0.000313816	0.0925693	304.227
600.5000	1.51267	-0.000312575	0.094559	304.298
600.0000	1.24384	-0.000311234	0.0962789	304.367
599.5000	1.36322	-0.000309176	0.0989393	304.442
599.0000	1.36971	-0.000310706	0.101114	304.504
598.5000	1.54462	-0.000307866	0.103775	304.555
598.0000	1.81965	-0.000302421	0.105861	304.59
597.5000	1.75998	-0.000319308	0.107839	304.633
597.0000	1.85929	-0.000345667	0.110272	304.69
596.5000	1.8934	-0.000351387	0.112641	304.717
596.0000	2.1855	-0.000330252	0.115146	304.751
595.5000	2.19756	-0.000337285	0.117595	304.796
595.0000	2.25631	-0.000330368	0.120273	304.824
594.5000	2.33488	-0.000330691	0.123058	304.862
594.0000	2.30174	-0.00032669	0.125338	304.903
593.5000	2.13931	-0.000329573	0.128064	304.933
593.0000	2.31553	-0.000320856	0.131256	304.975
592.5000	2.4549	-0.00032971	0.133971	305.038
592.0000	2.52312	-0.000331351	0.136734	305.127
591.5000	2.39114	-0.000338133	0.138905	305.188
591.0000	2.30872	-0.000322916	0.141923	305.286
590.5000	2.26562	-0.000324521	0.144752	305.407
590.0000	2.28086	-0.000343285	0.147858	305.546
589.5000	2.46106	-0.000340113	0.15124	305.696
589.0000	2.46759	-0.000324321	0.154538	305.842
588.5000	2.39618	-0.000319797	0.157945	306.024
588.0000	2.73821	-0.000314321	0.161756	306.23
587.5000	2.81824	-0.000323311	0.165588	306.454
587.0000	2.80552	-0.000317263	0.16963	306.735
586.5000	2.63219	-0.00030997	0.173454	307.004
586.0000	2.56389	-0.000311745	0.177966	307.289
585.5000	2.86106	-0.000298429	0.182097	307.59
585.0000	3.08846	-0.000277252	0.186226	307.906
584.5000	3.19942	-0.000261871	0.190325	308.221
584.0000	3.28418	-0.000225923	0.195017	308.57
583.5000	3.44107	-0.000226752	0.200006	308.944
583.0000	3.54479	-0.000208098	0.205649	309.361
582.5000	3.9389	-0.000175998	0.211085	309.797
582.0000	3.91753	-0.000157461	0.216654	310.244
581.5000	4.18009	-0.000118187	0.222489	310.721
581.0000	4.2754	-0.000103048	0.228979	311.237
580.5000	4.69762	-6.68849E-005	0.235655	311.778
580.0000	4.82232	-2.29859E-005	0.24205	312.311
579.5000	4.88163	4.67929E-006	0.248632	312.878
579.0000	5.24484	3.06495E-005	0.255361	313.448
578.5000	5.51531	5.84572E-005	0.262539	314.022
578.0000	6.02924	0.000103994	0.26987	314.643
577.5000	6.15152	0.000143201	0.277289	315.33
577.0000	6.34056	0.000176242	0.285589	316.018
576.5000	6.75618	0.000210568	0.294632	316.775
576.0000	7.12312	0.000229673	0.303414	317.513
575.5000	7.35002	0.000262955	0.31271	318.289
575.0000	7.65561	0.000317374	0.321037	319.027
574.5000	7.9939	0.000347287	0.330358	319.833
574.0000	8.474	0.000378736	0.339851	320.629
573.5000	8.83083	0.000438155	0.349575	321.461
573.0000	9.18785	0.000478319	0.359345	322.347
572.5000	9.70139	0.000514476	0.36871	323.202
572.0000	10.1426	0.000557467	0.379157	324.174
571.5000	10.6109	0.000581941	0.389721	325.135
571.0000	11.1837	0.00064472	0.401444	326.157
570.5000	11.8234	0.00070006	0.413061	327.225
570.0000	12.3537	0.000738969	0.424268	328.267
569.5000	12.6411	0.000778894	0.436557	329.356
569.0000	12.9278	0.000852857	0.448826	330.442
568.5000	13.4776	0.000884493	0.46008	331.494
568.0000	14.0424	0.000919894	0.471419	332.586
567.5000	14.605	0.000988315	0.483018	333.699
567.0000	15.0857	0.00102517	0.494706	334.785
566.5000	15.5966	0.00103411	0.506148	335.831
566.0000	15.8113	0.00107669	0.517424	336.861
565.5000	16.4415	0.00109873	0.528234	337.882
565.0000	16.658	0.00110621	0.538969	338.862
564.5000	17.0295	0.00111051	0.54959	339.825
564.0000	17.3074	0.00108735	0.55952	340.691
563.5000	17.3592	0.00109182	0.568768	341.521
563.0000	17.3372	0.0010825	0.577911	342.372
562.5000	17.2044	0.00105516	0.586343	343.129
562.0000	17.4789	0.00105024	0.594502	343.854
561.5000	17.4996	0.00102703	0.603358	344.601
561.0000	17.6982	0.000985579	0.611275	345.293
560.5000	17.7643	0.00096204	0.618644	345.941
560.0000	17.5499	0.000927855	0.625774	346.536
559.5000	17.3639	0.000880657	0.632596	347.053
559.0000	17.2229	0.000873342	0.638292	347.478
558.5000	16.9078	0.000839087	0.64292	347.828
558.0000	17.0065	0.000800925	0.646955	348.128
557.5000	16.7621	0.000752848	0.650829	348.376
557.0000	16.1435	0.00069998	0.654232	348.56
556.5000	15.7818	0.000633129	0.656747	348.7
556.0000	15.5516	0.000596354	0.658214	348.784
555.5000	15.312	0.000542737	0.659652	348.829
555.0000	15.2067	0.000482023	0.660604	348.801
554.5000	15.1883	0.000433043	0.661428	348.719
554.0000	14.5398	0.000364542	0.661241	348.591
553.5000	14.3182	0.000320385	0.66056	348.408
553.0000	14.2797	0.000293431	0.659752	348.223
552.5000	13.9711	0.000243744	0.659043	347.995
552.0000	14.1304	0.000179693	0.657826	347.707
551.5000	13.4228	0.000124061	0.656454	347.417
551.0000	12.9475	8.10765E-005	0.654433	347.101
550.5000	12.765	1.98035E-005	0.652237	346.751
550.0000	12.5434	1.50436E-006	0.650082	346.376
549.5000	12.2367	-2.57178E-005	0.648096	346
549.0000	12.2997	-4.89195E-005	0.645468	345.619
548.5000	12.3987	-7.17084E-005	0.642799	345.246
548.0000	12.1273	-6.75392E-005	0.641019	344.841
547.5000	11.9953	-6.93216E-005	0.639323	344.471
547.0000	11.5955	-7.68771E-005	0.637563	344.072
546.5000	11.7368	-8.12907E-005	0.635672	343.726
546.0000	11.5809	-7.39925E-005	0.633333	343.406
545.5000	11.496	-5.44677E-005	0.632001	343.079
545.0000	11.6592	-3.84641E-005	0.630734	342.807
544.5000	11.7222	-5.26459E-005	0.629406	342.518
544.0000	11.9284	-3.77819E-005	0.628042	342.271
543.5000	11.772	-5.87147E-006	0.627048	342.05
543.0000	12.2036	4.14998E-005	0.626515	341.862
542.5000	12.45	4.30792E-005	0.626511	341.698
542.0000	12.7471	7.73639E-005	0.626438	341.563
541.5000	12.8033	9.83736E-005	0.626471	341.459
541.0000	13.0461	8.92679E-005	0.62653	341.38
540.5000	12.7612	0.000125967	0.627547	341.327
540.0000	12.7218	0.000134238	0.628936	341.297
539.5000	12.8923	0.000143754	0.630296	341.317
539.0000	13.3286	0.000171827	0.631725	341.381
538.5000	13.4265	0.000204429	0.633613	341.473
538.0000	13.9144	0.000221806	0.636019	341.574
537.5000	14.2536	0.000236587	0.638631	341.708
537.0000	14.4329	0.000235545	0.641403	341.882
536.5000	14.3363	0.000252443	0.644514	342.076
536.0000	14.4872	0.000272627	0.648196	342.312
535.5000	14.8063	0.000310765	0.651878	342.557
535.0000	15.0135	0.000319279	0.655994	342.829
534.5000	15.1425	0.000326528	0.660071	343.11
534.0000	15.2705	0.000339083	0.664491	343.43
533.5000	15.2749	0.000343868	0.669105	343.794
533.0000	15.2558	0.000351141	0.673508	344.146
532.5000	15.6826	0.000355097	0.678219	344.539
532.0000	15.7403	0.000336	0.683367	344.963
531.5000	16.2357	0.00033899	0.688717	345.395
531.0000	16.5409	0.000341044	0.694831	345.843
530.5000	16.8602	0.000334913	0.700516	346.288
530.0000	16.5572	0.000322525	0.706295	346.761
529.5000	16.4243	0.000325706	0.712015	347.229
529.0000	16.5442	0.000299877	0.71764	347.658
528.5000	16.5058	0.000259293	0.723235	348.108
528.0000	16.3615	0.000228577	0.728527	348.529
527.5000	16.2888	0.000212715	0.734078	348.95
527.0000	16.1836	0.000162111	0.740153	349.413
526.5000	15.9327	0.00012465	0.745731	349.862
526.0000	15.9044	6.66066E-005	0.751599	350.308
525.5000	15.472	2.77516E-005	0.757349	350.74
525.0000	15.696	-1.5446E-005	0.762952	351.162
524.5000	15.6106	-5.44341E-005	0.768216	351.536
524.0000	15.6414	-9.41533E-005	0.773005	351.866
523.5000	15.0204	-0.000136993	0.777594	352.209
523.0000	14.6908	-0.000198588	0.781907	352.522
522.5000	14.2742	-0.000257528	0.785858	352.827
522.0000	14.1045	-0.00028488	0.790066	353.128
521.5000	13.7703	-0.000360368	0.794416	353.422
521.0000	13.4736	-0.000410776	0.79831	353.687
520.5000	13.1129	-0.000465157	0.802162	353.949
520.0000	13.0877	-0.00051367	0.80545	354.163
519.5000	12.7938	-0.000584287	0.809043	354.379
519.0000	12.5643	-0.000630277	0.812388	354.598
518.5000	12.1591	-0.000666432	0.81522	354.797
518.0000	11.4812	-0.000736934	0.818288	354.984
517.5000	11.1365	-0.000786245	0.821482	355.175
517.0000	10.5884	-0.000839935	0.824656	355.34
516.5000	10.308	-0.000905388	0.827933	355.512
516.0000	10.2088	-0.00094554	0.831102	355.696
515.5000	10.2196	-0.000986078	0.833711	355.87
515.0000	9.93855	-0.00103223	0.836259	356.026
514.5000	9.91001	-0.00108966	0.838768	356.192
514.0000	9.51198	-0.00112494	0.841169	356.337
513.5000	9.28912	-0.0011968	0.843689	356.486
513.0000	9.28549	-0.00124242	0.845897	356.64
512.5000	8.84211	-0.00127984	0.848559	356.815
512.0000	8.33802	-0.00132793	0.851067	356.968
511.5000	8.34197	-0.0013617	0.85333	357.134
511.0000	8.16654	-0.00140299	0.855567	357.28
510.5000	7.82582	-0.00143817	0.857924	357.411
510.0000	7.61654	-0.00146871	0.860283	357.546
509.5000	7.25959	-0.00150476	0.862283	357.658
509.0000	7.61159	-0.0015374	0.864229	357.778
508.5000	7.20942	-0.00160312	0.866028	357.872
508.0000	7.01625	-0.00163151	0.867825	357.93
507.5000	6.61061	-0.00167901	0.869605	357.977
507.0000	6.14186	-0.00172245	0.871558	358.038
506.5000	5.93908	-0.00173322	0.873406	358.091
506.0000	5.75762	-0.00177265	0.874807	358.14
505.5000	5.36007	-0.00179653	0.876093	358.175
505.0000	5.13164	-0.00184489	0.877379	358.202
504.5000	4.92292	-0.00188979	0.878664	358.214
504.0000	5.09221	-0.00191885	0.879606	358.195
503.5000	5.12523	-0.00194109	0.88017	358.141
503.0000	4.78836	-0.00195757	0.880523	358.046
502.5000	4.57107	-0.00200367	0.880634	357.946
502.0000	4.34079	-0.00202184	0.880426	357.818
501.5000	4.15814	-0.00204689	0.880306	357.68
501.0000	4.249	-0.00207161	0.880013	357.51
500.5000	4.16435	-0.00207792	0.879551	357.295
500.0000	3.86712	-0.00213097	0.878831	357.036
499.5000	3.27392	-0.00216146	0.877488	356.734
499.0000	3.34227	-0.00219759	0.875632	356.304
498.5000	2.86241	-0.00225006	0.873347	355.745
498.0000	2.71638	-0.00229412	0.870838	355.072
497.5000	2.67118	-0.00233856	0.868262	354.224
497.0000	2.68912	-0.00235309	0.866182	353.333
496.5000	2.59104	-0.00236467	0.864308	352.393
496.0000	2.22132	-0.00237546	0.863475	351.621
495.5000	1.4474	-0.00239274	0.862864	351.008
495.0000	0.745998	-0.00243018	0.861649	350.553
494.5000	0.694902	-0.00247772	0.859647	350.122
494.0000	0.605078	-0.00250789	0.857453	349.717
493.5000	0.53777	-0.00257122	0.855122	349.297
493.0000	0.0466573	-0.00259456	0.852928	348.905
492.5000	-0.32919	-0.00261877	0.850668	348.508
492.0000	-0.838029	-0.00268414	0.847981	348.081
491.5000	-1.04628	-0.00269528	0.845249	347.695
491.0000	-1.24926	-0.00272856	0.842706	347.329
490.5000	-1.81426	-0.00275814	0.840165	347.002
490.0000	-2.10945	-0.00279412	0.837657	346.731
489.5000	-2.30433	-0.00284451	0.835119	346.519
489.0000	-2.96652	-0.00288124	0.832315	346.308
488.5000	-3.5963	-0.0029085	0.829017	346.061
488.0000	-3.86805	-0.00296847	0.824725	345.637
487.5000	-3.99967	-0.00301729	0.819839	344.987
487.0000	-4.12091	-0.00307013	0.815772	344.227
486.5000	-4.20929	-0.00308637	0.811583	343.332
486.0000	-4.52736	-0.00311179	0.807583	342.408
485.5000	-5.0235	-0.00314293	0.804762	341.494
485.0000	-5.37872	-0.00318529	0.80252	340.643
484.5000	-5.43939	-0.00322504	0.799901	339.935
484.0000	-5.40023	-0.00323952	0.796801	339.312
483.5000	-5.69048	-0.00328921	0.793731	338.781
483.0000	-6.02495	-0.00331772	0.790188	338.283
482.5000	-6.19619	-0.00334087	0.786434	337.851
482.0000	-6.27655	-0.00337032	0.78244	337.453
481.5000	-6.63333	-0.00338912	0.778599	337.068
481.0000	-6.60452	-0.00339622	0.77493	336.709
480.5000	-6.63072	-0.0033985	0.771106	336.38
480.0000	-6.69194	-0.0034063	0.766851	336.048
479.5000	-6.72334	-0.00342568	0.762585	335.724
479.0000	-6.73052	-0.00346057	0.756788	335.274
478.5000	-6.74522	-0.0034523	0.750559	334.599
478.0000	-6.85019	-0.00346591	0.745159	333.661
477.5000	-6.84772	-0.00344998	0.742463	332.837
477.0000	-6.74127	-0.00343549	0.740087	332.227
476.5000	-6.70304	-0.00343516	0.734933	331.6
476.0000	-6.83473	-0.00342056	0.728551	330.79
475.5000	-6.77399	-0.00342918	0.721655	329.728
475.0000	-6.61678	-0.00341374	0.714853	328.471
474.5000	-6.48975	-0.0034115	0.708968	327.13
474.0000	-6.2877	-0.00339358	0.703456	325.656
473.5000	-6.24549	-0.00338191	0.697566	323.974
473.0000	-6.11034	-0.00337475	0.691526	322.126
472.5000	-6.04793	-0.00334474	0.686357	320.149
472.0000	-6.1041	-0.00333448	0.683379	318.469
471.5000	-5.81954	-0.00330758	0.68102	317.116
471.0000	-5.89922	-0.00328136	0.678981	316.299
470.5000	-5.67462	-0.00326027	0.676665	315.747
470.0000	-5.68399	-0.00325293	0.674001	315.531
469.5000	-5.65704	-0.00325545	0.669202	315.399
469.0000	-5.56587	-0.00324614	0.660547	314.927
468.5000	-5.41191	-0.00323673	0.651569	314.03
468.0000	-5.38743	-0.00322975	0.644719	313.019
467.5000	-5.33392	-0.00321551	0.63977	312.164
467.0000	-5.23285	-0.00318372	0.636064	311.526
466.5000	-5.21848	-0.00316331	0.632859	311.099
466.0000	-5.05897	-0.00314298	0.628787	310.847
465.5000	-5.05082	-0.00312135	0.624234	310.793
465.0000	-5.05046	-0.00307198	0.619297	311.003
464.5000	-5.02574	-0.00305153	0.612984	311.375
464.0000	-5.2527	-0.00303211	0.604905	311.651
463.5000	-5.26417	-0.00300843	0.595182	311.568
463.0000	-5.33809	-0.00298944	0.58579	311.158
462.5000	-5.26087	-0.00295493	0.578005	310.591
462.0000	-5.09653	-0.00292087	0.571492	309.983
461.5000	-5.11663	-0.00288819	0.565602	309.458
461.0000	-5.06704	-0.00287445	0.559844	309.056
460.5000	-5.15375	-0.0028228	0.553736	308.771
460.0000	-4.94356	-0.00279238	0.547851	308.592
459.5000	-4.92599	-0.00276166	0.54153	308.46
459.0000	-4.84661	-0.0027169	0.534177	308.276
458.5000	-4.9097	-0.00269203	0.526258	307.995
458.0000	-4.7167	-0.00266043	0.518112	307.588
457.5000	-4.69394	-0.00261556	0.509819	306.965
457.0000	-4.6532	-0.00257229	0.501815	306.141
456.5000	-4.37377	-0.00253556	0.495399	305.348
456.0000	-4.2185	-0.00248609	0.488671	304.639
455.5000	-4.04558	-0.00244498	0.480136	303.783
455.0000	-3.90354	-0.00240175	0.472098	302.796
454.5000	-3.88439	-0.00235488	0.465944	301.856
454.0000	-3.821	-0.00230745	0.46054	301.157
453.5000	-3.57737	-0.00225493	0.454083	300.658
453.0000	-3.24331	-0.00219207	0.446901	300.161
452.5000	-3.05689	-0.00214545	0.439997	299.646
452.0000	-2.90917	-0.00210111	0.433225	299.083
451.5000	-2.70749	-0.00205587	0.426143	298.496
451.0000	-2.53602	-0.00201262	0.419524	297.943
450.5000	-2.41188	-0.00196823	0.412676	297.354
450.0000	-2.28654	-0.00190717	0.406546	296.784
449.5000	-2.33732	-0.00186605	0.400997	296.301
449.0000	-2.10032	-0.00183127	0.396024	295.994
448.5000	-2.15357	-0.00178553	0.389789	295.716
448.0000	-1.88059	-0.00174783	0.382923	295.318
447.5000	-1.85636	-0.00171871	0.377336	294.911
447.0000	-1.78021	-0.00166244	0.373585	294.737
446.5000	-1.70708	-0.00161296	0.369348	294.736
446.0000	-1.35407	-0.00156749	0.362412	294.614
445.5000	-1.30312	-0.00151651	0.355144	294.193
445.0000	-1.36324	-0.00148053	0.348932	293.6
444.5000	-1.60844	-0.00144487	0.3431	292.968
444.0000	-1.65011	-0.00140354	0.337536	292.333
443.5000	-1.70075	-0.00136323	0.331878	291.624
443.0000	-1.79121	-0.0013081	0.327039	290.977
442.5000	-1.85401	-0.00126572	0.322499	290.367
442.0000	-1.76874	-0.00122312	0.318322	289.862
441.5000	-1.71635	-0.00119637	0.313509	289.33
441.0000	-1.66249	-0.00115971	0.309129	288.856
440.5000	-1.80476	-0.00113089	0.304854	288.393
440.0000	-1.70602	-0.00110275	0.300315	287.912
439.5000	-1.60634	-0.00106634	0.295658	287.427
439.0000	-1.51296	-0.00102114	0.290546	286.907
438.5000	-1.43549	-0.00098736	0.285168	286.384
438.0000	-1.5306	-0.000964374	0.279887	285.889
437.5000	-1.44675	-0.000941109	0.274977	285.42
437.0000	-1.24179	-0.000909979	0.269646	284.93
436.5000	-1.25464	-0.000885221	0.265412	284.508
436.0000	-1.16289	-0.00085624	0.261585	284.139
435.5000	-1.09483	-0.000826781	0.25732	283.795
435.0000	-1.01476	-0.000803093	0.252758	283.461
434.5000	-1.16673	-0.000782604	0.248141	283.125
434.0000	-1.1333	-0.000756748	0.243672	282.769
433.5000	-1.15861	-0.000725026	0.239453	282.406
433.0000	-0.869776	-0.000684064	0.23549	282.017
432.5000	-0.87447	-0.000656401	0.231601	281.628
432.0000	-0.823424	-0.000623501	0.227301	281.208
431.5000	-0.895739	-0.000596118	0.223267	280.802
431.0000	-0.926711	-0.00056863	0.219324	280.391
430.5000	-0.953007	-0.000533992	0.215429	279.974
430.0000	-0.980713	-0.000508423	0.211892	279.575
429.5000	-0.920655	-0.000474109	0.208163	279.163
429.0000	-0.92614	-0.000440587	0.204451	278.748
428.5000	-0.864958	-0.00039682	0.200719	278.34
428.0000	-0.731332	-0.000365357	0.196766	277.937
427.5000	-0.681441	-0.000348229	0.193444	277.571
427.0000	-0.611948	-0.000317958	0.190174	277.199
426.5000	-0.269492	-0.000288921	0.18703	276.829
426.0000	-0.12449	-0.000260045	0.183826	276.436
425.5000	0.00134447	-0.0002363	0.180893	276.027
425.0000	-0.00594975	-0.00022875	0.177645	275.583
424.5000	-0.018624	-0.000210243	0.174532	275.117
424.0000	0.10729	-0.000186114	0.171746	274.664
423.5000	0.197263	-0.00017171	0.169628	274.274
423.0000	0.114707	-0.000153501	0.167327	273.932
422.5000	0.122723	-0.000138881	0.164909	273.638
422.0000	0.15103	-0.000124422	0.162316	273.356
421.5000	0.262344	-0.000103162	0.159792	273.09
421.0000	0.396013	-0.000100212	0.157564	272.846
420.5000	0.304871	-8.42229E-005	0.155198	272.593
420.0000	0.396232	-7.2707E-005	0.152905	272.331
419.5000	0.315901	-5.70033E-005	0.150592	272.051
419.0000	0.349919	-4.50134E-005	0.148452	271.796
418.5000	0.294915	-2.99783E-005	0.146334	271.578
418.0000	0.180725	-1.31115E-005	0.144457	271.359
417.5000	0.107402	7.24451E-006	0.14241	271.145
417.0000	0.0983327	2.24501E-005	0.140741	270.949
416.5000	0.241963	4.9944E-005	0.13924	270.805
416.0000	0.177171	5.49392E-005	0.137547	270.706
415.5000	0.265449	8.03998E-005	0.135578	270.597
415.0000	0.299819	9.32222E-005	0.133502	270.443
414.5000	0.396329	9.58608E-005	0.131695	270.239
414.0000	0.417026	0.00012134	0.13044	270.043
413.5000	0.445223	0.000149263	0.12932	269.841
413.0000	0.264695	0.000159761	0.128216	269.653
412.5000	0.436314	0.000177794	0.127179	269.495
412.0000	0.532831	0.000190337	0.126209	269.352
411.5000	0.614496	0.000198144	0.125162	269.225
411.0000	0.690083	0.000218638	0.124174	269.107
410.5000	0.71262	0.000240188	0.123315	268.994
410.0000	0.713592	0.000248619	0.122725	268.903
409.5000	0.657665	0.000253839	0.122046	268.817
409.0000	0.76274	0.000250992	0.121529	268.764
408.5000	0.791074	0.000264704	0.120729	268.712
408.0000	0.761263	0.000263806	0.119932	268.675
407.5000	0.797443	0.000274043	0.118979	268.618
407.0000	0.768866	0.000277354	0.118188	268.549
406.5000	0.670233	0.000286213	0.117692	268.491
406.0000	0.531264	0.000297381	0.117154	268.425
405.5000	0.530007	0.00029817	0.116387	268.345
405.0000	0.527398	0.000291839	0.115626	268.244
404.5000	0.553818	0.000291031	0.114928	268.128
404.0000	0.371187	0.000294902	0.114586	267.988
403.5000	0.240109	0.000306687	0.114102	267.813
403.0000	0.0880049	0.00030313	0.113986	267.627
402.5000	0.221395	0.000301146	0.113496	267.424
402.0000	0.0716991	0.000295597	0.113483	267.234
401.5000	0.0715216	0.000297159	0.113766	267.04
401.0000	-0.0138107	0.000319194	0.113734	266.858
400.5000	-0.113223	0.000328967	0.113755	266.692
400.0000	-0.182906	0.000343586	0.113571	266.54
399.5000	-0.193728	0.000344406	0.11406	266.412
399.0000	-0.245809	0.000352592	0.114633	266.324
398.5000	-0.250202	0.000354206	0.114817	266.236
398.0000	-0.297958	0.000356345	0.11499	266.171
397.5000	-0.187956	0.000354264	0.115194	266.135
397.0000	-0.176596	0.000359962	0.115709	266.122
396.5000	-0.127921	0.000351083	0.116069	266.143
396.0000	-0.155849	0.000355902	0.116397	266.179
395.5000	-0.0943763	0.000347427	0.116434	266.246
395.0000	-0.179109	0.000348232	0.116598	266.341
394.5000	-0.0459619	0.000355034	0.116977	266.468
394.0000	-0.0923885	0.000362063	0.117541	266.633
393.5000	-0.140621	0.000365254	0.117609	266.797
393.0000	-0.119835	0.000354032	0.117605	266.981
392.5000	0.008906	0.000358635	0.117846	267.162
392.0000	0.166832	0.000349776	0.11821	267.32
391.5000	0.135192	0.000349743	0.11892	267.473
391.0000	0.140724	0.000330581	0.119334	267.601
390.5000	0.125003	0.000332127	0.11959	267.727
390.0000	0.134259	0.000337556	0.119819	267.841
389.5000	0.145771	0.000347153	0.120362	267.944
389.0000	0.228593	0.000336587	0.12104	268.037
388.5000	0.244988	0.000341303	0.121509	268.128
388.0000	0.235553	0.000351894	0.121967	268.224
387.5000	0.239539	0.000353599	0.122688	268.312
387.0000	0.177164	0.000357253	0.123856	268.396
386.5000	0.148286	0.000353721	0.124833	268.472
386.0000	0.171275	0.000351195	0.125811	268.533
385.5000	0.174329	0.000342078	0.126868	268.596
385.0000	0.172095	0.000334522	0.12799	268.659
384.5000	0.0668563	0.000335705	0.129001	268.711
384.0000	-0.0247472	0.000332411	0.130054	268.755
383.5000	0.044183	0.000336174	0.130899	268.803
383.0000	0.141954	0.000333963	0.131565	268.849
382.5000	0.325589	0.000340959	0.132283	268.891
382.0000	0.358029	0.000339103	0.133636	268.951
381.5000	0.323754	0.000325968	0.134966	268.999
381.0000	0.311145	0.000335415	0.136216	269.067
380.5000	0.328343	0.000325884	0.137228	269.131
380.0000	0.477949	0.000327819	0.138592	269.204
379.5000	0.524896	0.000332069	0.139881	269.268
379.0000	0.535308	0.000323901	0.14073	269.325
378.5000	0.569912	0.000321744	0.141225	269.379
378.0000	0.525033	0.000321973	0.141831	269.438
377.5000	0.616968	0.000312515	0.142734	269.508
377.0000	0.723295	0.000325425	0.143364	269.555
376.5000	0.822313	0.000331314	0.144151	269.593
376.0000	0.841223	0.000323275	0.144973	269.627
375.5000	0.979507	0.000325015	0.145646	269.665
375.0000	0.907313	0.000316148	0.146359	269.698
374.5000	0.845963	0.000325361	0.147107	269.726
374.0000	0.821355	0.000315421	0.147823	269.749
373.5000	0.813125	0.000307699	0.14823	269.752
373.0000	0.851698	0.000300567	0.148619	269.774
372.5000	0.894569	0.000302384	0.148899	269.779
372.0000	1.02365	0.000309352	0.149285	269.787
371.5000	0.89389	0.000304217	0.149478	269.787
371.0000	0.880206	0.000283033	0.150026	269.803
370.5000	0.902934	0.000286765	0.150851	269.837
370.0000	0.851824	0.000285654	0.151481	269.869
369.5000	0.947904	0.000277802	0.151974	269.895
369.0000	0.885045	0.000284083	0.152601	269.935
368.5000	0.893673	0.000284018	0.153408	269.984
368.0000	0.93868	0.0002727	0.153975	270.038
367.5000	0.834935	0.000258871	0.154703	270.1
367.0000	0.941463	0.000246371	0.155603	270.162
366.5000	1.01593	0.000240658	0.156219	270.227
366.0000	0.857202	0.000220188	0.157016	270.319
365.5000	0.842144	0.000216731	0.157713	270.405
365.0000	0.888181	0.000204126	0.158219	270.485
364.5000	0.925169	0.000185916	0.158888	270.559
364.0000	0.889709	0.000169319	0.159461	270.642
363.5000	0.846647	0.000170927	0.160475	270.736
363.0000	0.831278	0.00014598	0.161425	270.828
362.5000	0.867231	0.000145737	0.162238	270.922
362.0000	1.01917	0.00013021	0.162961	271.01
361.5000	0.947759	0.000128595	0.163907	271.102
361.0000	0.888731	0.000112065	0.164686	271.181
360.5000	0.807325	9.1365E-005	0.165256	271.262
360.0000	0.853971	8.80438E-005	0.165976	271.347
359.5000	0.847085	8.00683E-005	0.166692	271.439
359.0000	0.933	5.51263E-005	0.166958	271.512
358.5000	0.801214	4.91479E-005	0.167203	271.593
358.0000	0.940338	4.64714E-005	0.167529	271.678
357.5000	1.06811	5.3524E-005	0.16763	271.744
357.0000	1.02092	4.35242E-005	0.168141	271.825
356.5000	1.02062	4.93809E-005	0.168892	271.898
356.0000	1.05077	3.84028E-005	0.169323	271.975
355.5000	0.967031	2.70345E-005	0.169735	272.052
355.0000	1.13502	9.18154E-006	0.170121	272.137
354.5000	1.13339	1.51437E-005	0.170417	272.216
354.0000	1.26526	3.03164E-007	0.170773	272.291
353.5000	1.16571	-1.60979E-005	0.171183	272.369
353.0000	1.24004	-2.39702E-005	0.171546	272.452
352.5000	1.3363	-2.74528E-005	0.171995	272.539
352.0000	1.4979	-4.67284E-005	0.172458	272.627
351.5000	1.43169	-6.16567E-005	0.172917	272.711
351.0000	1.55077	-7.99619E-005	0.173586	272.784
350.5000	1.5194	-9.13886E-005	0.174506	272.869
350.0000	1.50497	-0.000102015	0.175512	272.958
349.5000	1.436	-0.000125332	0.176573	273.044
349.0000	1.38618	-0.000142087	0.177871	273.144
348.5000	1.44516	-0.000157137	0.179137	273.234
348.0000	1.50071	-0.000179763	0.180072	273.317
347.5000	1.5013	-0.00018963	0.181299	273.401
347.0000	1.47036	-0.000199359	0.182473	273.477
346.5000	1.38847	-0.000211613	0.183533	273.561
346.0000	1.37972	-0.000231198	0.184482	273.641
345.5000	1.24237	-0.000253073	0.185626	273.723
345.0000	1.30316	-0.000266979	0.186944	273.818
344.5000	1.2536	-0.000276175	0.188085	273.896
344.0000	1.27475	-0.0003013	0.189512	273.983
343.5000	1.26017	-0.000318295	0.190507	274.056
343.0000	1.38523	-0.000327234	0.191464	274.134
342.5000	1.46835	-0.000334206	0.192331	274.218
342.0000	1.54856	-0.000330822	0.193204	274.305
341.5000	1.58319	-0.000349943	0.19414	274.388
341.0000	1.75597	-0.000352194	0.195207	274.465
340.5000	1.87205	-0.000367447	0.195991	274.542
340.0000	1.88269	-0.000383523	0.196965	274.638
339.5000	2.06799	-0.000394725	0.197671	274.734
339.0000	2.05788	-0.00041591	0.198634	274.828
338.5000	2.15165	-0.000429267	0.199692	274.923
338.0000	2.11016	-0.000443267	0.200818	275.03
337.5000	2.22413	-0.000460202	0.201758	275.128
337.0000	2.39952	-0.000490819	0.20275	275.24
336.5000	2.50396	-0.000513682	0.203767	275.335
336.0000	2.70983	-0.000531757	0.204884	275.451
335.5000	2.65559	-0.000547226	0.205866	275.554
335.0000	2.59448	-0.000575321	0.206899	275.661
334.5000	2.65076	-0.000597325	0.207944	275.779
334.0000	2.86192	-0.000636585	0.209119	275.896
333.5000	2.89239	-0.000659291	0.210776	276.026
333.0000	2.88724	-0.000685381	0.211999	276.148
332.5000	2.86789	-0.00071786	0.212908	276.268
332.0000	2.79451	-0.000733038	0.213941	276.393
331.5000	2.78522	-0.000767494	0.215162	276.515
331.0000	2.71005	-0.000802332	0.216613	276.654
330.5000	2.78185	-0.000826965	0.217708	276.781
330.0000	2.77149	-0.000856131	0.21889	276.907
329.5000	2.86435	-0.000885454	0.220161	277.043
329.0000	3.04931	-0.000929897	0.221296	277.176
328.5000	3.06036	-0.000944723	0.222433	277.298
328.0000	3.00523	-0.000974778	0.223372	277.411
327.5000	2.92291	-0.00101235	0.224457	277.521
327.0000	2.97786	-0.00105182	0.225796	277.629
326.5000	3.11196	-0.00107128	0.227433	277.762
326.0000	2.94799	-0.00110399	0.229163	277.9
325.5000	2.71417	-0.00113584	0.230724	278.043
325.0000	2.75757	-0.00117223	0.231951	278.187
324.5000	2.9776	-0.00120829	0.233434	278.34
324.0000	3.02551	-0.00125294	0.235242	278.506
323.5000	3.21491	-0.0013002	0.237254	278.68
323.0000	3.14698	-0.00133349	0.239032	278.857
322.5000	3.16457	-0.00137224	0.240663	279.025
322.0000	3.0653	-0.0014083	0.242382	279.213
321.5000	3.22405	-0.00144188	0.244196	279.388
321.0000	3.24968	-0.00148718	0.246106	279.569
320.5000	3.3192	-0.00151193	0.248255	279.766
320.0000	3.33281	-0.00153171	0.250115	279.951
319.5000	3.34388	-0.00156791	0.252098	280.146
319.0000	3.35075	-0.00158278	0.25399	280.358
318.5000	3.40277	-0.00162248	0.255865	280.577
318.0000	3.39171	-0.00166093	0.257586	280.778
317.5000	3.56592	-0.00169313	0.259326	280.961
317.0000	3.59731	-0.00171411	0.261459	281.153
316.5000	3.58433	-0.00174869	0.263683	281.34
316.0000	3.51287	-0.00178119	0.265935	281.532
315.5000	3.45411	-0.00180439	0.267816	281.724
315.0000	3.61981	-0.0018155	0.269803	281.936
314.5000	3.66182	-0.00185509	0.271855	282.155
314.0000	3.75747	-0.00185893	0.274043	282.377
313.5000	3.76347	-0.00187499	0.276351	282.606
313.0000	3.80569	-0.00189052	0.278758	282.855
312.5000	3.85884	-0.00192191	0.281087	283.108
312.0000	3.80697	-0.00195594	0.283523	283.353
311.5000	3.79598	-0.00198566	0.285939	283.607
311.0000	3.96943	-0.00200696	0.2888	283.881
310.5000	4.27148	-0.00203056	0.291476	284.178
310.0000	4.30908	-0.00204873	0.294337	284.471
309.5000	4.25309	-0.00208344	0.29737	284.777
309.0000	4.32285	-0.00211615	0.300864	285.133
308.5000	4.30634	-0.00214396	0.303887	285.475
308.0000	4.3521	-0.00216289	0.307014	285.821
307.5000	4.36599	-0.00219254	0.310679	286.212
307.0000	4.61116	-0.00221709	0.314338	286.582
306.5000	4.60229	-0.00224645	0.3184	286.992
306.0000	4.76358	-0.00227611	0.322475	287.389
305.5000	4.66455	-0.00232005	0.326643	287.824
305.0000	4.78451	-0.00235411	0.331095	288.274
304.5000	4.7413	-0.00237827	0.336112	288.763
304.0000	4.80969	-0.00239724	0.34152	289.282
303.5000	4.95011	-0.00242632	0.346932	289.803
303.0000	5.04394	-0.00245602	0.352667	290.378
302.5000	5.0645	-0.00247886	0.358676	290.985
302.0000	4.92176	-0.00251088	0.365239	291.626
301.5000	4.88185	-0.00253909	0.371952	292.279
301.0000	5.03345	-0.00255807	0.378689	292.956
300.5000	5.06157	-0.00256751	0.384688	293.563
300.0000	5.09291	-0.00259063	0.392193	294.29
299.5000	5.05872	-0.00263157	0.399327	294.994
299.0000	5.24392	-0.00263007	0.406437	295.71
298.5000	5.1686	-0.00264751	0.413709	296.456
298.0000	5.31829	-0.00265158	0.420836	297.177
297.5000	5.50043	-0.0026475	0.428371	297.933
297.0000	5.63805	-0.00264149	0.435416	298.599
296.5000	5.65475	-0.0026243	0.442157	299.255
296.0000	5.69661	-0.00263041	0.448779	299.906
295.5000	5.74534	-0.00260542	0.455603	300.549
295.0000	5.83536	-0.00258777	0.461979	301.133
294.5000	5.73756	-0.00258052	0.468418	301.736
294.0000	5.6282	-0.00254829	0.474626	302.361
293.5000	5.62972	-0.00251095	0.479771	302.896
293.0000	5.67641	-0.00246015	0.485337	303.466
292.5000	5.806	-0.00241749	0.490924	304.06
292.0000	5.8895	-0.00236619	0.496045	304.62
291.5000	5.89624	-0.00230964	0.501193	305.171
291.0000	5.76124	-0.00224581	0.506332	305.719
290.5000	5.46849	-0.00220435	0.511879	306.302
290.0000	5.21919	-0.00215158	0.517238	306.847
289.5000	5.05628	-0.00208696	0.522009	307.364
289.0000	4.85396	-0.00201614	0.526574	307.867
288.5000	4.79098	-0.00196025	0.531706	308.44
288.0000	4.65556	-0.00189495	0.53672	309.005
287.5000	4.53376	-0.00183179	0.541893	309.597
287.0000	4.31321	-0.00176953	0.547004	310.227
286.5000	4.25465	-0.00170309	0.551943	310.859
286.0000	4.15551	-0.00164042	0.556891	311.457
285.5000	3.8955	-0.00156698	0.562352	312.055
285.0000	3.70803	-0.0014851	0.568026	312.68
284.5000	3.52765	-0.00142702	0.57327	313.265
284.0000	3.42596	-0.00137097	0.57898	313.896
283.5000	3.21779	-0.00130902	0.584938	314.541
283.0000	2.95937	-0.00123966	0.590653	315.166
282.5000	3.16592	-0.0011484	0.596846	315.838
282.0000	3.18981	-0.00105832	0.602979	316.539
281.5000	3.16568	-0.000978776	0.609	317.231
281.0000	2.95278	-0.00092743	0.615302	317.934
280.5000	2.80983	-0.000869539	0.622076	318.71
280.0000	2.5709	-0.000791035	0.629027	319.503
279.5000	2.46952	-0.00070725	0.636215	320.331
279.0000	2.33017	-0.000633679	0.643156	321.145
278.5000	1.91088	-0.000547302	0.651083	322.056
278.0000	1.76105	-0.000473356	0.660108	323.042
277.5000	1.72508	-0.000398893	0.668701	323.983
277.0000	1.51204	-0.00032531	0.677678	324.998
276.5000	1.64044	-0.000239419	0.686998	326.066
276.0000	1.39832	-0.000155242	0.695767	327.064
275.5000	0.869996	-8.59584E-005	0.706278	328.229
275.0000	0.734945	-2.29106E-005	0.717297	329.457
274.5000	0.374256	4.02077E-005	0.728616	330.742
274.0000	-0.143718	0.000117609	0.740839	332.161
273.5000	-0.704011	0.000164651	0.752657	333.5
273.0000	-0.925814	0.000223538	0.765632	334.968
272.5000	-1.17431	0.000318317	0.7792	336.515
272.0000	-1.18422	0.000404762	0.793427	338.157
271.5000	-1.13775	0.000456888	0.809162	339.976
271.0000	-1.42	0.000513384	0.824956	341.773
270.5000	-1.50354	0.000589829	0.841771	343.672
270.0000	-0.995931	0.000667955	0.859016	345.664
269.5000	-1.33714	0.000755604	0.876662	347.747
269.0000	-1.30917	0.000812628	0.894484	349.842
268.5000	-1.19245	0.000852263	0.914464	352.183
268.0000	-1.19557	0.0008771	0.935303	354.624
267.5000	-1.90893	0.00090038	0.957083	357.194
267.0000	-1.66981	0.000965897	0.980485	360.007
266.5000	-1.60568	0.00101817	1.00478	362.964
266.0000	-1.31671	0.00105551	1.02791	365.742
265.5000	-1.31524	0.00110523	1.05327	368.772
265.0000	-1.72577	0.00113486	1.08035	372.075
264.5000	-1.40576	0.00115831	1.10657	375.324
264.0000	-0.993506	0.00118796	1.1332	378.645
263.5000	-0.24956	0.00124193	1.16186	382.211
263.0000	0.0668045	0.00126782	1.18831	385.528
262.5000	0.506795	0.00127864	1.21764	389.276
262.0000	0.234522	0.00126975	1.24579	392.946
261.5000	0.494811	0.00122949	1.27449	396.68
261.0000	0.850514	0.00119324	1.30261	400.308
260.5000	0.878514	0.00117611	1.33254	404.22
260.0000	1.58379	0.00119335	1.36319	408.272
259.5000	2.30532	0.00121351	1.3945	412.458
259.0000	3.36085	0.00121482	1.42662	416.81
258.5000	3.11546	0.00116226	1.45996	421.317
258.0000	4.49661	0.00113829	1.49432	425.995
257.5000	5.29206	0.00114891	1.52808	430.623
257.0000	6.64621	0.00115512	1.56507	435.732
256.5000	6.83401	0.00114364	1.60181	440.836
256.0000	7.55631	0.00113855	1.6424	446.495
255.5000	7.94683	0.00113567	1.68508	452.478
255.0000	8.93102	0.00104278	1.72969	458.803
254.5000	9.59649	0.000991666	1.77383	465.124
254.0000	10.396	0.000893708	1.81989	471.776
253.5000	11.3295	0.000848314	1.87351	479.533
253.0000	12.3841	0.000878184	1.92397	486.95
252.5000	14.198	0.000869867	2.00184	498.621
252.0000	13.251	0.000883676	2.06908	508.844
251.5000	14.4851	0.000817643	2.13005	518.227
251.0000	14.0641	0.000647627	2.19346	528.069
250.5000	16.2262	0.000513855	2.25883	538.401
250.0000	18.7441	0.000438873	2.32291	548.705
249.5000	19.279	0.000280759	2.38901	559.503
249.0000	14.9901	0.0002585	2.461	571.443
248.5000	16.0139	0.000120173	2.53166	583.322
248.0000	16.4102	9.46681E-005	2.60849	596.472
247.5000	16.7146	-4.57555E-005	2.68359	609.588
247.0000	17.8492	-0.000143734	2.76492	624.07
246.5000	19.2388	-4.2058E-005	2.84872	639.254
246.0000	19.0641	-1.95679E-005	2.93444	655.067
245.5000	17.5073	-2.26763E-006	3.02555	672.314
245.0000	16.004	-0.000143558	3.11807	690.215
244.5000	12.814	-0.000360169	3.2114	708.666
244.0000	6.61977	-0.000643346	3.3044	727.51
243.5000	6.57601	-0.000656854	3.39191	745.678
243.0000	7.95424	-0.000297122	3.47776	763.949
242.5000	6.61632	4.73591E-005	3.5692	783.891
242.0000	5.54989	0.000387776	3.64485	800.781
241.5000	1.82014	0.000174055	3.72438	818.937
241.0000	2.68572	0.000310355	3.79204	834.735
240.5000	2.40105	0.000285997	3.86139	851.391
240.0000	-0.500988	0.000223068	3.91884	865.517
239.5000	1.50831	0.000579603	3.97895	880.664
239.0000	-0.430602	0.000419144	4.02533	892.618
238.5000	0.193716	0.000267489	4.06856	904.066
238.0000	-5.28621	0.000497274	4.10759	914.811
237.5000	-6.29441	0.000537052	4.13739	923.366
237.0000	-6.51537	0.000494749	4.16333	931.161
236.5000	-5.31809	0.000545222	4.18398	937.753
236.0000	-3.03899	0.000912405	4.199	942.936
235.5000	0.0165606	0.000901294	4.21125	947.801
235.0000	-0.209604	0.000671346	4.21664	950.433
234.5000	-2.81065	0.000144242	4.2202	952.709
234.0000	-1.31938	3.25907E-005	4.22204	954.653
233.5000	-3.63405	0.000124725	4.22212	956.319
233.0000	-2.29651	9.83238E-005	4.22026	957.63
232.5000	-2.75464	-9.14041E-005	4.21675	958.548
232.0000	-0.591759	0.000178426	4.21105	959.297
231.5000	1.24365	4.16537E-005	4.20532	959.731
231.0000	-0.29509	-0.000148794	4.19823	960.079
230.5000	-0.442415	-2.78628E-005	4.1904	960.364
230.0000	-2.2438	0.000115277	4.18224	960.583
229.5000	0.763273	0.000133333	4.17322	960.724
229.0000	1.04931	-0.000193202	4.16372	960.811
228.5000	-0.564993	-0.000345734	4.1543	960.91
228.0000	2.79557	-0.000343271	4.1451	960.974
227.5000	-2.52452	-0.000502094	4.13486	961.054
227.0000	-2.18919	-0.000230424	4.12439	961.111
226.5000	-1.29961	-0.000200925	4.1133	961.167
226.0000	2.1995	-5.32667E-005	4.10275	961.171
225.5000	-0.0341393	-0.000235165	4.09152	961.21
225.0000	-1.08915	-0.00041384	4.07968	961.25
224.5000	-3.82997	-0.000438538	4.06743	961.266
224.0000	-3.51755	-7.16929E-005	4.05514	961.256
223.5000	-4.20512	-0.000252925	4.04334	961.303
223.0000	-5.39348	-0.000178877	4.03164	961.33
222.5000	-6.85299	9.21338E-006	4.01705	961.342
222.0000	-7.15192	-9.2856E-005	4.00369	961.366
221.5000	-6.50058	-8.1358E-005	3.98964	961.399
221.0000	-1.42754	0.000131687	3.97766	961.439
220.5000	-1.48334	0.000160913	3.96547	961.458
220.0000	-2.40997	0.000411846	3.95254	961.466

##### Extended Information
[Comments]
Sample name	JS187+JS190_5E-5_H2O_58-42_100EQDT+72H
Comment
User
Division
Company	Labo systeme complexes hors equilibre

[Detailed Information]
Creation date	1/26/2024 10:49 AM

Data array type	Linear data array * 4
Horizontal axis	Wavelength [nm]
Vertical axis(1)	CD [mdeg]
Vertical axis(2)	LD [dOD]
Vertical axis(3)	Abs
Vertical axis(4)	HT [V]
Start	700 nm
End	220 nm
Data interval	0.5 nm
Data points	961     

[Measurement Information]
Instrument name	CD Jasco
Model name	J-1500
Serial No.	A005261638

Detector	PM-539
Detector S/N	A0052PM539
  Lock-in amp.	X mode
  HT volt	Auto

Detector	EXPML-535
Detector S/N	A0001
  Lock-in amp.	X mode
  HT volt	Auto

Measurement date	1/26/2024 10:49 AM

Overload detect	1
Photometric mode	CD, LD, Abs, HT
Measure range	700 - 220 nm
Data pitch	0.5 nm
CD scale	200 mdeg/1.0 dOD
FL scale	200 mdeg/1.0 dOD
D.I.T.	1 sec
Bandwidth	1.00 nm
Start mode	Immediately
Scanning speed	500 nm/min
Baseline correction	Baseline
Shutter control	Auto


