TITLE	JS187+JS190_5E-5_H2O_10-90_100EQDT+72H
DATA TYPE	
ORIGIN	JASCO
OWNER	
DATE	24/01/26
TIME	11:21:36
SPECTROMETER/DATA SYSTEM	
LOCALE	1033
RESOLUTION	
DELTAX	-0.5
XUNITS	NANOMETERS
YUNITS	CD [mdeg]
Y2UNITS	LD [dOD]
Y3UNITS	ABSORBANCE
Y4UNITS	HT [V]
FIRSTX	  700.0000
LASTX	  220.0000
NPOINTS	     961
FIRSTY	     3.01835
MAXY	    31.09995
MINY	   -54.16690
XYDATA
700.0000	3.01835	2.18166E-006	0.0182684	306.098
699.5000	2.80247	-2.43564E-008	0.0176426	305.831
699.0000	2.92775	2.1172E-005	0.0170777	305.526
698.5000	3.15852	4.69512E-005	0.0168332	305.166
698.0000	3.20713	7.32219E-005	0.0163008	304.779
697.5000	3.13166	8.53453E-005	0.0155344	304.395
697.0000	2.97157	0.000108351	0.0143543	303.953
696.5000	3.0997	0.000119433	0.0138719	303.495
696.0000	3.04763	0.000110575	0.0140942	302.986
695.5000	3.0439	0.000112728	0.0142988	302.477
695.0000	3.09774	9.62342E-005	0.0148219	301.999
694.5000	2.85752	9.97201E-005	0.015037	301.514
694.0000	2.97478	0.000115137	0.0161445	301.036
693.5000	3.201	0.000125598	0.0175158	300.587
693.0000	3.34803	0.000121802	0.0194863	300.194
692.5000	3.07193	0.000106703	0.021455	299.825
692.0000	3.19332	0.000116661	0.0234699	299.5
691.5000	3.39883	9.94021E-005	0.0257946	299.215
691.0000	3.58808	0.000102711	0.0281434	298.951
690.5000	3.54907	0.000104697	0.0297964	298.726
690.0000	3.84749	8.99043E-005	0.0310136	298.509
689.5000	3.80419	8.06019E-005	0.0321046	298.302
689.0000	3.72861	7.36174E-005	0.0337589	298.132
688.5000	3.57838	6.78534E-005	0.035057	298.009
688.0000	3.52989	0.000104861	0.036969	297.971
687.5000	3.56482	0.000110652	0.0393965	298.03
687.0000	3.38595	0.000117741	0.0417015	298.156
686.5000	3.1746	0.000104096	0.0436725	298.341
686.0000	3.29221	9.17922E-005	0.0447367	298.573
685.5000	3.46691	0.000100178	0.0450399	298.837
685.0000	3.28176	8.47289E-005	0.0450825	299.112
684.5000	3.22323	7.87327E-005	0.0443689	299.36
684.0000	3.6621	8.92804E-005	0.0432375	299.605
683.5000	3.66988	8.52519E-005	0.0424586	299.845
683.0000	3.642	9.87688E-005	0.0415662	300.089
682.5000	3.65539	0.000101862	0.0410375	300.321
682.0000	3.81339	0.000101818	0.0404138	300.582
681.5000	3.60544	8.90705E-005	0.0402402	300.838
681.0000	3.7614	0.000109662	0.0403607	301.135
680.5000	4.12465	9.7571E-005	0.040662	301.425
680.0000	4.29514	8.26682E-005	0.0398944	301.683
679.5000	4.13985	6.10398E-005	0.038692	301.893
679.0000	3.84804	5.90197E-005	0.0362152	302.028
678.5000	4.06304	6.94018E-005	0.034726	302.122
678.0000	4.16701	8.26921E-005	0.0331013	302.163
677.5000	4.27504	0.000101029	0.0320616	302.168
677.0000	4.15563	0.000111991	0.0315724	302.152
676.5000	4.4188	0.000121419	0.031786	302.133
676.0000	4.03087	0.000118609	0.0320782	302.118
675.5000	3.74181	0.000108904	0.0321869	302.084
675.0000	3.61142	0.000109339	0.0325753	302.063
674.5000	3.50481	0.00010418	0.0334852	302.061
674.0000	3.43009	0.000122636	0.0344258	302.064
673.5000	3.5572	0.00012556	0.0354629	302.077
673.0000	3.29768	0.000126339	0.0355652	302.096
672.5000	3.25989	0.000123298	0.0355854	302.117
672.0000	3.28393	0.000153595	0.0359437	302.148
671.5000	3.3085	0.000166444	0.0368042	302.183
671.0000	3.32123	0.00016528	0.0377948	302.233
670.5000	3.34217	0.000176491	0.0389703	302.284
670.0000	3.33292	0.000202372	0.0400134	302.345
669.5000	3.43001	0.000200851	0.0404164	302.398
669.0000	3.52397	0.000186611	0.0408645	302.454
668.5000	3.53473	0.000176799	0.04139	302.522
668.0000	3.54202	0.000161477	0.0417912	302.61
667.5000	3.79429	0.000175504	0.0420304	302.699
667.0000	3.629	0.000172429	0.0421191	302.801
666.5000	3.54911	0.000163592	0.0421778	302.9
666.0000	3.39012	0.000174787	0.0415385	303.008
665.5000	3.19811	0.000160108	0.0413165	303.116
665.0000	3.24424	0.000154398	0.0420139	303.235
664.5000	3.49117	0.000170181	0.0429301	303.345
664.0000	3.21313	0.000162159	0.0431781	303.458
663.5000	3.37782	0.000163619	0.0422283	303.549
663.0000	3.61536	0.00016457	0.0420538	303.634
662.5000	3.85172	0.000187162	0.0417743	303.714
662.0000	3.77516	0.00015617	0.0414248	303.782
661.5000	3.54212	0.000149665	0.0416442	303.842
661.0000	3.54495	0.000147194	0.04148	303.891
660.5000	3.67059	0.000157898	0.0409898	303.918
660.0000	3.91999	0.000176275	0.0408159	303.94
659.5000	3.9751	0.000200328	0.0401378	303.946
659.0000	3.98574	0.000196827	0.0396092	303.929
658.5000	3.92178	0.000187126	0.0392684	303.897
658.0000	3.95644	0.000193236	0.0393218	303.851
657.5000	4.31193	0.000202004	0.0388352	303.787
657.0000	4.28093	0.000200411	0.0390854	303.691
656.5000	4.20603	0.0001984	0.0381585	303.566
656.0000	4.39522	0.00020457	0.0374191	303.434
655.5000	4.47591	0.000187427	0.0381297	303.29
655.0000	4.44719	0.000177945	0.0379777	303.115
654.5000	4.39	0.000176367	0.0371626	302.925
654.0000	4.31844	0.000181742	0.0370016	302.721
653.5000	4.56522	0.000189107	0.0376429	302.534
653.0000	4.51556	0.000200895	0.0383359	302.333
652.5000	4.68374	0.000232464	0.0391167	302.167
652.0000	4.75006	0.000226203	0.0401379	302.032
651.5000	4.47463	0.000221003	0.041572	301.919
651.0000	4.42352	0.000208112	0.0435226	301.84
650.5000	4.49496	0.000232394	0.044795	301.792
650.0000	4.82898	0.000229441	0.0464256	301.764
649.5000	4.83372	0.000230502	0.0475736	301.765
649.0000	4.72395	0.000229189	0.0489299	301.785
648.5000	4.87566	0.000213402	0.0495257	301.844
648.0000	4.93514	0.000214522	0.0505172	301.93
647.5000	4.72092	0.000226299	0.0513695	302.029
647.0000	4.46483	0.000234097	0.0517973	302.161
646.5000	4.54974	0.00022188	0.0522758	302.319
646.0000	4.75087	0.000215914	0.0536546	302.48
645.5000	4.75921	0.00023073	0.054228	302.637
645.0000	4.54806	0.000208114	0.0536918	302.785
644.5000	4.48249	0.000218363	0.0536334	302.93
644.0000	4.39456	0.000214991	0.0536907	303.049
643.5000	4.46387	0.000202205	0.0532048	303.129
643.0000	4.78224	0.000210458	0.0526816	303.176
642.5000	4.65529	0.000193834	0.0522447	303.203
642.0000	4.54124	0.00020169	0.0520542	303.216
641.5000	4.67778	0.000207505	0.0518238	303.218
641.0000	4.81062	0.000219489	0.0518369	303.196
640.5000	4.62163	0.000235476	0.0522286	303.159
640.0000	4.65926	0.000255388	0.0529099	303.115
639.5000	4.66285	0.0002447	0.0538073	303.05
639.0000	4.71637	0.000260492	0.0544331	302.975
638.5000	4.82841	0.000259667	0.0554693	302.886
638.0000	4.75	0.000270205	0.0560163	302.804
637.5000	4.73321	0.000282033	0.0563258	302.717
637.0000	4.94039	0.000300236	0.0575279	302.63
636.5000	4.98411	0.000284182	0.0584381	302.544
636.0000	5.12697	0.000265851	0.0587934	302.472
635.5000	5.21088	0.000280262	0.0591847	302.396
635.0000	5.03618	0.00028893	0.0602385	302.347
634.5000	4.89998	0.000288883	0.0610649	302.29
634.0000	4.71756	0.000298024	0.0617431	302.23
633.5000	4.64555	0.000281754	0.0620963	302.179
633.0000	4.48597	0.00027181	0.0630255	302.135
632.5000	4.46011	0.000259178	0.0633456	302.095
632.0000	4.73412	0.000263679	0.0636162	302.05
631.5000	4.8139	0.000261315	0.064197	302.007
631.0000	5.06862	0.000297073	0.0647885	301.97
630.5000	4.97233	0.000285075	0.0654709	301.943
630.0000	4.84081	0.000288684	0.0662067	301.914
629.5000	5.21799	0.000282288	0.0670991	301.886
629.0000	5.31904	0.00029828	0.0677473	301.858
628.5000	5.30484	0.000292734	0.0681573	301.826
628.0000	5.37878	0.000323916	0.0687023	301.781
627.5000	5.27097	0.000337119	0.0695907	301.735
627.0000	5.19267	0.000318372	0.0699987	301.693
626.5000	5.42119	0.00031888	0.0699831	301.64
626.0000	5.52515	0.000321202	0.0701651	301.598
625.5000	5.73843	0.000334261	0.071091	301.567
625.0000	5.83718	0.000349115	0.0720149	301.53
624.5000	5.92034	0.000357498	0.0728585	301.488
624.0000	6.03651	0.000381996	0.0736885	301.465
623.5000	5.87326	0.000382113	0.0746337	301.458
623.0000	5.64312	0.000374043	0.0755833	301.467
622.5000	5.70386	0.000399614	0.0767087	301.49
622.0000	5.57085	0.000405973	0.0776067	301.527
621.5000	6.01179	0.000418096	0.0784413	301.566
621.0000	5.7324	0.000412826	0.0793259	301.614
620.5000	5.60597	0.000390139	0.0798766	301.666
620.0000	5.53745	0.000382725	0.0804043	301.739
619.5000	5.53218	0.000372769	0.0814408	301.851
619.0000	5.37452	0.000350364	0.0828337	301.971
618.5000	5.36738	0.000349866	0.0845927	302.1
618.0000	5.2648	0.000354753	0.0865294	302.249
617.5000	5.50336	0.00036667	0.08731	302.39
617.0000	5.37823	0.00037924	0.087863	302.542
616.5000	5.44873	0.000372324	0.0885511	302.703
616.0000	5.56943	0.000368548	0.0896902	302.863
615.5000	5.60055	0.000356703	0.0903376	303.014
615.0000	5.97781	0.00035201	0.090891	303.165
614.5000	6.11008	0.000337278	0.0912712	303.317
614.0000	6.25582	0.000327946	0.0916209	303.462
613.5000	6.15017	0.000312182	0.0922499	303.612
613.0000	6.24587	0.000329402	0.0927177	303.762
612.5000	6.25607	0.000347116	0.0933717	303.921
612.0000	6.45328	0.000360685	0.0941474	304.08
611.5000	6.45799	0.000370274	0.0950851	304.224
611.0000	6.79503	0.000376016	0.0956205	304.38
610.5000	6.94753	0.000380502	0.0961124	304.538
610.0000	6.90864	0.000373328	0.0962306	304.668
609.5000	6.88748	0.00036851	0.0972113	304.819
609.0000	6.81335	0.000368354	0.0980105	304.949
608.5000	6.90671	0.000372565	0.0992348	305.084
608.0000	6.72704	0.000383687	0.0999098	305.197
607.5000	6.62904	0.00036953	0.100148	305.308
607.0000	6.40957	0.000377805	0.100892	305.432
606.5000	6.2557	0.000379154	0.101644	305.544
606.0000	6.17678	0.000391108	0.103157	305.662
605.5000	6.01269	0.000400217	0.104168	305.761
605.0000	5.88087	0.000412726	0.105601	305.866
604.5000	5.83342	0.000411437	0.106841	305.974
604.0000	5.66909	0.000414221	0.108184	306.065
603.5000	5.6208	0.000398047	0.109711	306.157
603.0000	5.69189	0.000408168	0.110778	306.245
602.5000	5.57329	0.000406437	0.112426	306.342
602.0000	5.6836	0.000414252	0.114033	306.418
601.5000	5.51592	0.000426891	0.115553	306.498
601.0000	5.30479	0.00042298	0.11702	306.573
600.5000	5.18584	0.000432354	0.118933	306.637
600.0000	5.13221	0.000421536	0.12055	306.697
599.5000	5.07656	0.000429564	0.123099	306.761
599.0000	5.25971	0.000443096	0.125165	306.813
598.5000	5.05199	0.00045477	0.127735	306.855
598.0000	5.13309	0.000457416	0.129953	306.904
597.5000	4.95474	0.000462063	0.131882	306.942
597.0000	4.90262	0.000448488	0.134335	307.002
596.5000	4.90923	0.00044632	0.136628	307.022
596.0000	4.73826	0.000455978	0.139047	307.048
595.5000	4.71116	0.000445144	0.141345	307.078
595.0000	4.29832	0.000446318	0.143902	307.094
594.5000	4.3205	0.000447715	0.146537	307.118
594.0000	4.01244	0.000474958	0.148652	307.144
593.5000	3.86097	0.00046507	0.151344	307.171
593.0000	3.65299	0.000471368	0.154474	307.207
592.5000	3.7965	0.000475783	0.157168	307.268
592.0000	3.6027	0.000495715	0.159802	307.346
591.5000	3.16963	0.00048077	0.16197	307.407
591.0000	2.91634	0.000495238	0.164789	307.487
590.5000	2.59382	0.000494443	0.167477	307.594
590.0000	2.31413	0.000477176	0.170382	307.714
589.5000	2.14453	0.000478021	0.173491	307.838
589.0000	2.00532	0.000479715	0.176682	307.976
588.5000	1.643	0.000486788	0.179738	308.125
588.0000	1.36995	0.000483066	0.18321	308.299
587.5000	0.900207	0.000483616	0.186809	308.502
587.0000	0.695626	0.000482096	0.190517	308.752
586.5000	-0.237662	0.000478572	0.19394	308.983
586.0000	-0.629086	0.000480009	0.198039	309.23
585.5000	-1.08122	0.000483551	0.201817	309.498
585.0000	-1.36962	0.000485663	0.205576	309.781
584.5000	-1.77612	0.000495657	0.209369	310.067
584.0000	-2.26997	0.000485868	0.21372	310.384
583.5000	-2.83349	0.000479806	0.218312	310.722
583.0000	-3.47783	0.000465022	0.223569	311.103
582.5000	-4.06481	0.00046694	0.228545	311.497
582.0000	-4.84434	0.000464399	0.233441	311.879
581.5000	-5.71409	0.000480742	0.238834	312.315
581.0000	-6.62411	0.000467673	0.244671	312.77
580.5000	-7.40597	0.00045884	0.250735	313.253
580.0000	-8.11906	0.000463874	0.256467	313.723
579.5000	-8.9308	0.000463105	0.262247	314.213
579.0000	-9.87951	0.000482004	0.268164	314.706
578.5000	-10.8106	0.000501344	0.274726	315.221
578.0000	-11.5622	0.000486569	0.281327	315.771
577.5000	-12.5906	0.000484441	0.287831	316.37
577.0000	-14.0892	0.000481135	0.295195	316.968
576.5000	-15.4877	0.000462705	0.303218	317.625
576.0000	-16.6729	0.00045438	0.310935	318.26
575.5000	-18.2481	0.000444036	0.319096	318.924
575.0000	-19.4159	0.000448955	0.326378	319.559
574.5000	-20.825	0.0004264	0.334613	320.258
574.0000	-22.1924	0.000415561	0.343067	320.951
573.5000	-23.8973	0.000400794	0.351501	321.654
573.0000	-25.3509	0.000379562	0.35993	322.405
572.5000	-26.839	0.000362848	0.367831	323.114
572.0000	-28.6387	0.000350473	0.376692	323.925
571.5000	-30.3696	0.000360783	0.385759	324.735
571.0000	-32.2649	0.000345884	0.395799	325.585
570.5000	-34.1268	0.000296424	0.405651	326.472
570.0000	-35.8171	0.000289709	0.414966	327.32
569.5000	-37.7913	0.000284651	0.425249	328.202
569.0000	-39.7281	0.000280229	0.435513	329.08
568.5000	-41.4748	0.000267572	0.444644	329.911
568.0000	-42.9988	0.000232556	0.453752	330.77
567.5000	-44.6882	0.000229837	0.463116	331.648
567.0000	-46.0752	0.000195351	0.472519	332.493
566.5000	-47.4855	0.000171343	0.481633	333.293
566.0000	-48.6555	0.000176173	0.490488	334.066
565.5000	-49.4928	0.000162225	0.498833	334.824
565.0000	-50.5847	0.000132703	0.507205	335.551
564.5000	-51.8073	0.00012928	0.515516	336.267
564.0000	-52.4716	0.000117263	0.523328	336.903
563.5000	-53.151	7.96475E-005	0.530269	337.486
563.0000	-53.725	6.32984E-005	0.537018	338.078
562.5000	-53.9469	5.2877E-005	0.543251	338.597
562.0000	-54.1119	5.12584E-005	0.549198	339.082
561.5000	-54.1669	1.79279E-005	0.555594	339.563
561.0000	-53.8801	1.72041E-006	0.561126	339.996
560.5000	-53.5571	-9.92416E-006	0.566059	340.379
560.0000	-53.3224	-7.75998E-006	0.57107	340.743
559.5000	-52.498	8.59632E-006	0.575748	341.027
559.0000	-51.5007	2.95734E-005	0.579467	341.238
558.5000	-50.9542	1.97098E-005	0.582274	341.391
558.0000	-50.1432	2.38591E-006	0.584453	341.491
557.5000	-49.1964	-1.80636E-005	0.586628	341.556
557.0000	-48.2601	6.84595E-006	0.588488	341.574
556.5000	-47.3498	1.64631E-005	0.58949	341.552
556.0000	-46.1216	1.01045E-005	0.589411	341.472
555.5000	-45.1833	1.81041E-005	0.589461	341.37
555.0000	-44.1587	1.88101E-005	0.589368	341.233
554.5000	-42.9926	1.85701E-005	0.589174	341.045
554.0000	-41.622	2.41985E-005	0.588024	340.818
553.5000	-40.8373	3.09348E-005	0.586648	340.566
553.0000	-39.8656	5.54202E-005	0.585251	340.322
552.5000	-38.9715	4.23755E-005	0.58424	340.066
552.0000	-37.8712	2.74185E-005	0.582745	339.755
551.5000	-37.4337	1.75633E-005	0.581078	339.44
551.0000	-36.9817	1.00202E-005	0.578906	339.114
550.5000	-36.3125	2.00339E-005	0.576535	338.752
550.0000	-35.5079	3.17446E-005	0.574429	338.39
549.5000	-35.1276	5.56113E-005	0.572632	338.041
549.0000	-34.6234	5.24182E-005	0.570344	337.702
548.5000	-33.8686	4.24822E-005	0.568293	337.401
548.0000	-33.608	5.26233E-005	0.567073	337.063
547.5000	-33.2428	6.1759E-005	0.565989	336.763
547.0000	-32.8845	7.03855E-005	0.564848	336.436
546.5000	-32.5976	7.34032E-005	0.563615	336.165
546.0000	-32.4479	5.39326E-005	0.561916	335.917
545.5000	-32.1907	9.40195E-005	0.561421	335.683
545.0000	-32.385	9.26731E-005	0.56097	335.501
544.5000	-32.525	7.20857E-005	0.560411	335.296
544.0000	-32.8176	9.66039E-005	0.559867	335.139
543.5000	-33.2056	9.20076E-005	0.559672	335.005
543.0000	-33.0045	9.30302E-005	0.559909	334.899
542.5000	-33.292	8.25718E-005	0.560768	334.828
542.0000	-33.5843	8.88307E-005	0.561597	334.789
541.5000	-33.7933	8.29707E-005	0.562556	334.782
541.0000	-34.4976	7.79369E-005	0.563435	334.79
540.5000	-34.8702	8.98836E-005	0.565205	334.815
540.0000	-35.4692	9.12761E-005	0.567076	334.836
539.5000	-35.901	8.24412E-005	0.568932	334.907
539.0000	-36.4231	6.58472E-005	0.570835	335.019
538.5000	-36.8636	7.22747E-005	0.573234	335.162
538.0000	-37.6058	6.76045E-005	0.576068	335.306
537.5000	-38.297	5.3858E-005	0.578941	335.466
537.0000	-38.8806	5.16111E-005	0.582041	335.671
536.5000	-39.3644	5.03298E-005	0.585327	335.88
536.0000	-40.0934	4.95564E-005	0.588985	336.11
535.5000	-40.3785	4.61141E-005	0.59264	336.348
535.0000	-40.7137	8.15827E-005	0.596727	336.613
534.5000	-41.2882	8.04615E-005	0.60051	336.859
534.0000	-41.4744	7.27838E-005	0.604663	337.146
533.5000	-41.972	9.20713E-005	0.608651	337.439
533.0000	-42.3708	9.04935E-005	0.612469	337.726
532.5000	-42.5503	0.000101916	0.616351	338.025
532.0000	-42.8762	9.47749E-005	0.62067	338.356
531.5000	-42.7668	9.78925E-005	0.625305	338.706
531.0000	-42.9722	0.0001109	0.630569	339.058
530.5000	-42.7986	0.000111069	0.635333	339.399
530.0000	-42.6484	0.000130186	0.640054	339.754
529.5000	-42.4629	0.00012398	0.644533	340.083
529.0000	-42.0769	0.000126729	0.648953	340.378
528.5000	-42.111	0.000135633	0.653127	340.671
528.0000	-41.8529	0.0001189	0.657169	340.953
527.5000	-41.4629	0.000103482	0.661514	341.239
527.0000	-41.0939	9.63139E-005	0.66609	341.536
526.5000	-40.5375	6.07293E-005	0.67008	341.809
526.0000	-39.6085	6.47905E-005	0.674581	342.102
525.5000	-39.0988	4.73161E-005	0.678782	342.362
525.0000	-38.4043	5.96017E-005	0.682885	342.617
524.5000	-37.1666	4.21011E-005	0.686685	342.828
524.0000	-36.3805	5.30386E-005	0.69008	343.004
523.5000	-35.7	5.8847E-005	0.693074	343.171
523.0000	-34.7202	6.53152E-005	0.695859	343.316
522.5000	-33.8372	5.83261E-005	0.698318	343.456
522.0000	-32.6493	6.75961E-005	0.701012	343.59
521.5000	-31.8335	7.74359E-005	0.70387	343.719
521.0000	-30.6856	8.78543E-005	0.706349	343.828
520.5000	-29.6165	9.02034E-005	0.708889	343.945
520.0000	-28.1587	9.74172E-005	0.711018	344.031
519.5000	-26.8623	0.000120854	0.713251	344.098
519.0000	-25.9292	0.000138321	0.715083	344.151
518.5000	-24.6439	0.000167286	0.716598	344.205
518.0000	-23.6801	0.000206895	0.718289	344.241
517.5000	-22.9461	0.000202469	0.719988	344.27
517.0000	-21.5291	0.000212929	0.721838	344.29
516.5000	-20.3019	0.000223255	0.723719	344.309
516.0000	-19.4336	0.000224832	0.72556	344.347
515.5000	-18.6227	0.000215545	0.727052	344.398
515.0000	-17.6229	0.000199436	0.728595	344.443
514.5000	-16.9248	0.000219282	0.729988	344.486
514.0000	-16.4938	0.000226614	0.731313	344.513
513.5000	-15.5873	0.000225064	0.732728	344.54
513.0000	-14.624	0.000226827	0.733682	344.557
512.5000	-13.8857	0.000248636	0.735234	344.61
512.0000	-13.1402	0.000257453	0.736771	344.655
511.5000	-12.4708	0.000236479	0.738031	344.71
511.0000	-12.0462	0.000232481	0.739272	344.745
510.5000	-11.2589	0.000255595	0.740809	344.785
510.0000	-10.7449	0.000262383	0.742344	344.829
509.5000	-9.93084	0.000269817	0.74366	344.865
509.0000	-9.42672	0.000262053	0.744828	344.899
508.5000	-8.86859	0.000270129	0.745898	344.912
508.0000	-8.23697	0.000295545	0.74711	344.906
507.5000	-7.68333	0.000296682	0.748323	344.892
507.0000	-6.82351	0.000313953	0.749678	344.887
506.5000	-6.22658	0.000316147	0.751176	344.902
506.0000	-5.54325	0.00033251	0.752225	344.912
505.5000	-4.91678	0.00035216	0.753266	344.92
505.0000	-4.39611	0.000349579	0.754309	344.92
504.5000	-3.63388	0.000347524	0.755402	344.911
504.0000	-3.32313	0.000312914	0.756036	344.86
503.5000	-2.70226	0.000332043	0.756539	344.801
503.0000	-1.82886	0.00036318	0.756983	344.719
502.5000	-0.976988	0.000386735	0.75736	344.65
502.0000	-0.544355	0.000376823	0.757476	344.561
501.5000	-0.112269	0.000358674	0.75765	344.458
501.0000	0.770941	0.000377952	0.757539	344.313
500.5000	1.34016	0.000387122	0.757484	344.148
500.0000	1.85674	0.000368718	0.757172	343.94
499.5000	2.66103	0.000370975	0.756301	343.697
499.0000	3.55754	0.000361245	0.755053	343.345
498.5000	4.27627	0.000357868	0.753633	342.894
498.0000	4.89663	0.000342426	0.751862	342.319
497.5000	5.67321	0.000331246	0.750196	341.593
497.0000	6.51973	0.000329219	0.748875	340.809
496.5000	7.40857	0.000331839	0.747684	339.968
496.0000	8.21702	0.000333916	0.747373	339.274
495.5000	9.05667	0.000338058	0.747377	338.744
495.0000	9.75585	0.000333822	0.746746	338.362
494.5000	10.5996	0.000313752	0.7455	338.023
494.0000	11.3904	0.000325221	0.744094	337.712
493.5000	12.5276	0.000347125	0.742409	337.371
493.0000	13.4003	0.000316275	0.7408	337.051
492.5000	14.3397	0.000326674	0.739248	336.739
492.0000	15.6681	0.000305555	0.737308	336.402
491.5000	16.114	0.000293999	0.735327	336.105
491.0000	17.2661	0.000314569	0.733604	335.835
490.5000	18.2385	0.00031713	0.731827	335.596
490.0000	19.274	0.000336543	0.729937	335.397
489.5000	20.3571	0.000318346	0.727963	335.249
489.0000	20.919	0.000337463	0.725778	335.108
488.5000	21.5609	0.00034663	0.723214	334.944
488.0000	22.2819	0.00033585	0.719805	334.622
487.5000	23.2372	0.000367034	0.715744	334.075
487.0000	23.9127	0.000360838	0.712601	333.43
486.5000	24.6578	0.00037351	0.709292	332.65
486.0000	25.5493	0.000367071	0.706029	331.826
485.5000	25.9015	0.000361414	0.703747	330.991
485.0000	26.586	0.000348838	0.701858	330.198
484.5000	27.0291	0.000361956	0.699806	329.566
484.0000	27.3362	0.000367268	0.69727	329.017
483.5000	27.7471	0.000366187	0.694816	328.562
483.0000	28.2565	0.000366195	0.691903	328.141
482.5000	28.5054	0.000366763	0.688757	327.782
482.0000	28.8553	0.000372762	0.685325	327.451
481.5000	28.8221	0.000364473	0.681955	327.124
481.0000	29.0193	0.000364153	0.678798	326.825
480.5000	29.4506	0.000352658	0.675581	326.565
480.0000	29.7012	0.000371659	0.672096	326.32
479.5000	29.8731	0.000370435	0.668516	326.074
479.0000	29.9924	0.000349062	0.663755	325.739
478.5000	30.1733	0.000357835	0.658435	325.172
478.0000	30.3217	0.000354336	0.653741	324.327
477.5000	30.3238	0.000365553	0.651403	323.559
477.0000	30.3775	0.000374986	0.649385	322.999
476.5000	30.3427	0.000377233	0.645266	322.491
476.0000	30.6787	0.000386895	0.639868	321.798
475.5000	30.7525	0.000393932	0.634211	320.884
475.0000	30.9683	0.00039282	0.628388	319.752
474.5000	31.0498	0.000389676	0.623408	318.532
474.0000	31.1	0.00039506	0.618935	317.192
473.5000	31.0463	0.000377115	0.614184	315.66
473.0000	31.0004	0.000387376	0.609352	313.97
472.5000	30.9362	0.000402109	0.605399	312.154
472.0000	30.6396	0.000402029	0.603173	310.582
471.5000	30.6355	0.000388884	0.601521	309.325
471.0000	30.4141	0.000394085	0.600106	308.585
470.5000	30.1945	0.000370482	0.598339	308.098
470.0000	29.9378	0.00035722	0.596274	307.945
469.5000	29.6511	0.00034209	0.592543	307.918
469.0000	29.3762	0.000326538	0.585611	307.622
468.5000	29.1427	0.000325643	0.578344	306.907
468.0000	28.6378	0.00030579	0.572916	306.052
467.5000	28.3599	0.000295217	0.56901	305.313
467.0000	28.1381	0.000286088	0.566275	304.779
466.5000	27.685	0.000285622	0.5639	304.44
466.0000	27.5085	0.000264381	0.560784	304.283
465.5000	27.138	0.0002587	0.557258	304.329
465.0000	27.0271	0.000266367	0.553297	304.629
464.5000	26.9063	0.000273408	0.548212	305.112
464.0000	26.5016	0.000256898	0.541269	305.492
463.5000	26.39	0.000268621	0.533179	305.567
463.0000	26.1727	0.000263057	0.525362	305.315
462.5000	25.6794	0.000243818	0.518845	304.878
462.0000	25.1252	0.000255611	0.513456	304.387
461.5000	24.8516	0.000264092	0.50865	303.974
461.0000	24.5256	0.000260812	0.503858	303.67
460.5000	24.4002	0.000256771	0.498733	303.483
460.0000	24.0565	0.000251943	0.493763	303.394
459.5000	23.6361	0.000240683	0.488478	303.363
459.0000	23.3248	0.000261204	0.482275	303.291
458.5000	23.0974	0.000261106	0.475646	303.137
458.0000	22.794	0.000247339	0.468697	302.849
457.5000	22.36	0.000240518	0.46158	302.345
457.0000	21.7462	0.00023184	0.454606	301.63
456.5000	21.0721	0.000214037	0.449127	300.936
456.0000	20.7822	0.000216603	0.443479	300.337
455.5000	20.1631	0.00020459	0.4364	299.629
455.0000	19.6585	0.000195835	0.429482	298.759
454.5000	19.2894	0.000194855	0.423979	297.89
454.0000	18.8734	0.000187846	0.419286	297.266
453.5000	18.6025	0.000189733	0.41374	296.858
453.0000	18.2174	0.000181811	0.407453	296.449
452.5000	17.7223	0.000168072	0.401377	296.017
452.0000	17.115	0.000170891	0.395412	295.535
451.5000	16.7608	0.000176113	0.389365	295.05
451.0000	16.426	0.00016266	0.383416	294.565
450.5000	16.0395	0.00016746	0.37719	294.039
450.0000	15.6295	0.000164808	0.37176	293.539
449.5000	15.2412	0.000169175	0.366862	293.122
449.0000	15.1034	0.000181255	0.362661	292.889
448.5000	14.7553	0.000184725	0.35719	292.684
448.0000	14.4823	0.000184176	0.351212	292.372
447.5000	13.9388	0.000183189	0.346233	292.024
447.0000	13.6078	0.000179227	0.342735	291.875
446.5000	13.2717	0.000183164	0.339073	291.927
446.0000	12.9243	0.000183416	0.333027	291.888
445.5000	12.5459	0.000185392	0.326719	291.559
445.0000	11.9951	0.000175853	0.321171	291.032
444.5000	11.6419	0.000178198	0.316152	290.479
444.0000	11.5575	0.000172288	0.311238	289.909
443.5000	11.3017	0.000173607	0.306307	289.271
443.0000	10.9274	0.000174716	0.302231	288.698
442.5000	10.6045	0.000174856	0.298454	288.162
442.0000	10.347	0.000166356	0.294894	287.716
441.5000	10.0861	0.000164856	0.290775	287.251
441.0000	9.67369	0.000174145	0.28701	286.836
440.5000	9.19893	0.000164762	0.283248	286.423
440.0000	8.84945	0.000160904	0.279338	286.001
439.5000	8.69782	0.000161826	0.275326	285.577
439.0000	8.50491	0.000169597	0.270907	285.123
438.5000	8.26015	0.000166857	0.26625	284.667
438.0000	7.78659	0.000176831	0.261561	284.229
437.5000	7.65362	0.000172563	0.257383	283.828
437.0000	7.65587	0.000178031	0.252698	283.399
436.5000	7.58956	0.000188429	0.249216	283.046
436.0000	7.30333	0.000212949	0.245705	282.708
435.5000	6.94528	0.00021349	0.242084	282.423
435.0000	6.85148	0.00021785	0.238077	282.14
434.5000	6.65304	0.000224966	0.234074	281.86
434.0000	6.36912	0.000220177	0.23026	281.564
433.5000	6.21998	0.000228039	0.226502	281.244
433.0000	6.27104	0.000245597	0.222983	280.896
432.5000	6.08558	0.000243734	0.219605	280.554
432.0000	5.97295	0.000244965	0.21594	280.192
431.5000	5.829	0.000231817	0.212458	279.837
431.0000	5.82393	0.000226699	0.209208	279.488
430.5000	5.45749	0.00023992	0.206029	279.136
430.0000	5.25053	0.000227209	0.203122	278.794
429.5000	5.12717	0.000215304	0.1999	278.428
429.0000	5.06154	0.000214294	0.196839	278.072
428.5000	4.92728	0.000214402	0.193823	277.728
428.0000	4.7467	0.000209851	0.190274	277.362
427.5000	4.74569	0.000198283	0.187524	277.047
427.0000	4.62538	0.000204822	0.184804	276.724
426.5000	4.48504	0.000201843	0.182243	276.406
426.0000	4.43665	0.000212535	0.179603	276.063
425.5000	4.44994	0.000213875	0.177154	275.698
425.0000	4.14167	0.000209135	0.174532	275.308
424.5000	4.02443	0.000198358	0.171814	274.878
424.0000	4.10467	0.000192271	0.16934	274.453
423.5000	3.9605	0.000192854	0.167476	274.085
423.0000	3.91422	0.000197016	0.16537	273.761
422.5000	3.77452	0.000191003	0.163209	273.489
422.0000	3.68189	0.000196433	0.160846	273.228
421.5000	3.79415	0.000202202	0.158576	272.984
421.0000	3.81967	0.000212914	0.156657	272.766
420.5000	3.72023	0.000200384	0.154623	272.543
420.0000	3.61237	0.000199714	0.15279	272.321
419.5000	3.56101	0.000203655	0.151091	272.094
419.0000	3.44689	0.000196511	0.149284	271.868
418.5000	3.45293	0.000185694	0.147319	271.664
418.0000	3.17448	0.00019209	0.145762	271.473
417.5000	3.03363	0.000187218	0.143859	271.271
417.0000	2.89997	0.00019108	0.142321	271.087
416.5000	2.71426	0.000178615	0.14115	270.97
416.0000	2.4928	0.000190911	0.13989	270.909
415.5000	2.48504	0.000209959	0.138366	270.839
415.0000	2.46287	0.000206562	0.136661	270.717
414.5000	2.3096	0.000208908	0.135281	270.55
414.0000	2.18462	0.000212857	0.134367	270.383
413.5000	2.17978	0.000224484	0.133671	270.218
413.0000	1.89951	0.000204905	0.132908	270.059
412.5000	1.82393	0.000207228	0.131994	269.911
412.0000	1.89788	0.000218898	0.131294	269.792
411.5000	2.03559	0.000214945	0.130353	269.674
411.0000	1.96735	0.000211315	0.129559	269.573
410.5000	1.86111	0.000208935	0.128989	269.484
410.0000	1.91402	0.000215872	0.128606	269.411
409.5000	1.92782	0.000208468	0.128165	269.346
409.0000	1.98703	0.000199134	0.127744	269.3
408.5000	1.99401	0.000195696	0.127213	269.272
408.0000	2.00777	0.000197384	0.126466	269.239
407.5000	2.28255	0.000196219	0.125856	269.212
407.0000	2.24632	0.000185243	0.125381	269.17
406.5000	2.12226	0.000175571	0.125085	269.129
406.0000	2.26631	0.000183794	0.124661	269.073
405.5000	2.1924	0.000177406	0.123985	269.001
405.0000	2.17691	0.000157604	0.123298	268.905
404.5000	2.18268	0.000172156	0.122819	268.808
404.0000	2.14816	0.000170082	0.122836	268.699
403.5000	2.04278	0.000172755	0.122648	268.549
403.0000	1.93633	0.000168588	0.122763	268.382
402.5000	2.09629	0.000176369	0.122446	268.194
402.0000	1.79997	0.000172141	0.122527	268.012
401.5000	1.81863	0.000172815	0.122936	267.828
401.0000	1.88147	0.000189775	0.123044	267.657
400.5000	1.8551	0.000196602	0.123285	267.51
400.0000	1.87319	0.000197292	0.123472	267.39
399.5000	1.83258	0.000192066	0.124251	267.286
399.0000	1.57862	0.00019467	0.124864	267.201
398.5000	1.49486	0.000190371	0.125167	267.123
398.0000	1.43334	0.000189012	0.125459	267.069
397.5000	1.31477	0.000179971	0.125902	267.053
397.0000	1.33621	0.000182383	0.126601	267.055
396.5000	1.22526	0.000186296	0.127117	267.09
396.0000	1.16601	0.000176397	0.127499	267.13
395.5000	1.16044	0.000153595	0.127498	267.195
395.0000	1.11914	0.000148107	0.127797	267.301
394.5000	1.26693	0.00015726	0.128474	267.454
394.0000	1.1539	0.000162634	0.12901	267.617
393.5000	1.14907	0.000161266	0.129215	267.794
393.0000	1.12919	0.000151229	0.129391	267.994
392.5000	1.20246	0.000152943	0.129708	268.182
392.0000	1.34383	0.000154327	0.130191	268.35
391.5000	1.25829	0.000151992	0.130819	268.497
391.0000	1.24804	0.000143193	0.131178	268.621
390.5000	1.22413	0.000141165	0.131465	268.75
390.0000	1.22828	0.000151831	0.131917	268.883
389.5000	1.34521	0.000153819	0.132628	269.001
389.0000	1.47929	0.000152065	0.133378	269.101
388.5000	1.49077	0.000154822	0.133876	269.195
388.0000	1.58457	0.000168501	0.134337	269.291
387.5000	1.54571	0.000179001	0.135133	269.386
387.0000	1.50802	0.000187533	0.136281	269.468
386.5000	1.36358	0.000178605	0.137209	269.541
386.0000	1.16739	0.000172064	0.138216	269.605
385.5000	1.26045	0.000160502	0.139303	269.67
385.0000	1.23769	0.000161296	0.140374	269.729
384.5000	1.27305	0.000155188	0.141426	269.784
384.0000	1.06243	0.000156127	0.14253	269.833
383.5000	1.12805	0.000162127	0.143494	269.892
383.0000	1.33079	0.000161286	0.144224	269.943
382.5000	1.45528	0.000169942	0.145083	269.998
382.0000	1.59053	0.000172983	0.146311	270.047
381.5000	1.34232	0.000160114	0.14765	270.096
381.0000	1.18686	0.000179029	0.148695	270.147
380.5000	1.31688	0.000168811	0.149873	270.225
380.0000	1.34887	0.000170615	0.151271	270.302
379.5000	1.37855	0.000165266	0.152565	270.366
379.0000	1.48479	0.000157511	0.153463	270.428
378.5000	1.55342	0.000161556	0.15405	270.49
378.0000	1.40626	0.000162588	0.154728	270.555
377.5000	1.57799	0.000158705	0.155585	270.621
377.0000	1.64007	0.000168046	0.15628	270.674
376.5000	1.62386	0.000167334	0.157038	270.709
376.0000	1.6169	0.000163408	0.157897	270.747
375.5000	1.70007	0.000159679	0.158498	270.779
375.0000	1.61104	0.000150512	0.159229	270.813
374.5000	1.43754	0.000149807	0.159965	270.841
374.0000	1.31171	0.000151799	0.160608	270.857
373.5000	1.37624	0.000156851	0.161199	270.876
373.0000	1.67762	0.000138825	0.161607	270.9
372.5000	1.74426	0.000139382	0.162115	270.925
372.0000	1.84884	0.00014476	0.162599	270.941
371.5000	1.75817	0.000135584	0.163034	270.962
371.0000	1.68951	0.000127837	0.163722	270.99
370.5000	1.68099	0.000149853	0.164464	271.018
370.0000	1.6405	0.000141612	0.165162	271.056
369.5000	1.78816	0.00013823	0.165645	271.081
369.0000	1.87298	0.000147995	0.166262	271.12
368.5000	1.78635	0.000157716	0.167074	271.17
368.0000	1.7824	0.000141589	0.167798	271.237
367.5000	1.61723	0.000145921	0.168539	271.301
367.0000	1.77037	0.000134772	0.169531	271.371
366.5000	1.88821	0.000147225	0.17037	271.456
366.0000	1.84724	0.000141082	0.17116	271.548
365.5000	1.86496	0.000142373	0.17198	271.644
365.0000	1.8994	0.00014148	0.172467	271.723
364.5000	1.71844	0.000138011	0.173259	271.808
364.0000	1.65589	0.000123466	0.173959	271.902
363.5000	1.63622	0.000122012	0.174864	271.987
363.0000	1.6829	0.00010727	0.17583	272.082
362.5000	1.71252	8.98044E-005	0.176634	272.174
362.0000	1.81002	8.9302E-005	0.177446	272.27
361.5000	1.92951	9.8422E-005	0.178563	272.378
361.0000	1.78161	8.74372E-005	0.179462	272.468
360.5000	1.85763	8.27694E-005	0.18014	272.559
360.0000	1.95478	7.64071E-005	0.180998	272.656
359.5000	2.05434	7.73416E-005	0.181701	272.747
359.0000	2.0407	6.70057E-005	0.182003	272.823
358.5000	2.059	7.30574E-005	0.182157	272.897
358.0000	2.05767	6.58014E-005	0.182408	272.976
357.5000	1.99429	7.52307E-005	0.182677	273.057
357.0000	1.95729	5.64351E-005	0.183306	273.148
356.5000	1.90584	5.76969E-005	0.184101	273.225
356.0000	1.99976	5.56299E-005	0.184465	273.297
355.5000	1.9823	5.27272E-005	0.184747	273.363
355.0000	2.09903	4.45579E-005	0.184992	273.436
354.5000	2.09673	5.55519E-005	0.185303	273.517
354.0000	2.09149	6.37994E-005	0.185684	273.594
353.5000	2.13836	6.14988E-005	0.186048	273.669
353.0000	2.04773	4.74604E-005	0.186337	273.745
352.5000	2.11656	5.16068E-005	0.186873	273.84
352.0000	2.11638	3.53714E-005	0.187401	273.934
351.5000	1.96181	3.40481E-005	0.187792	274.012
351.0000	1.97789	2.85433E-005	0.1885	274.089
350.5000	1.9841	1.80505E-005	0.189463	274.178
350.0000	1.92982	1.70552E-005	0.190499	274.27
349.5000	1.98757	1.87471E-006	0.191673	274.367
349.0000	1.97632	-6.93169E-006	0.192879	274.459
348.5000	1.907	-4.63513E-007	0.19411	274.546
348.0000	1.93607	-5.01333E-006	0.195047	274.63
347.5000	1.91703	6.10441E-006	0.196268	274.714
347.0000	1.88179	2.34062E-006	0.197531	274.798
346.5000	1.77286	6.78766E-006	0.198486	274.872
346.0000	1.80976	-7.26402E-006	0.199504	274.959
345.5000	1.86055	-1.42657E-005	0.200706	275.047
345.0000	1.71333	-1.48765E-005	0.201978	275.138
344.5000	1.79657	-1.6819E-005	0.203164	275.22
344.0000	1.79215	-2.14671E-005	0.204463	275.297
343.5000	1.81248	-2.40085E-005	0.205589	275.381
343.0000	1.79981	-2.65437E-005	0.206623	275.466
342.5000	1.76535	-8.10114E-006	0.20759	275.559
342.0000	1.8383	-7.81437E-006	0.208466	275.646
341.5000	1.88442	-3.87299E-006	0.209453	275.735
341.0000	1.99454	-3.34675E-006	0.210571	275.817
340.5000	2.01746	-1.55713E-005	0.211524	275.909
340.0000	2.00177	-3.36386E-005	0.212488	276.005
339.5000	2.12482	-4.12258E-005	0.213045	276.087
339.0000	2.1114	-4.61671E-005	0.214087	276.189
338.5000	2.1554	-4.68569E-005	0.215175	276.287
338.0000	2.16472	-3.58805E-005	0.216247	276.39
337.5000	2.18511	-1.79827E-005	0.217324	276.5
337.0000	2.26021	-2.34897E-005	0.218104	276.594
336.5000	2.32762	-2.55219E-005	0.219216	276.698
336.0000	2.40777	-1.93305E-005	0.220229	276.805
335.5000	2.65807	-1.7932E-005	0.221172	276.905
335.0000	2.63222	-2.61918E-005	0.222093	277.003
334.5000	2.84866	-3.50868E-005	0.223088	277.116
334.0000	2.78782	-5.62472E-005	0.22424	277.232
333.5000	2.68543	-7.29697E-005	0.225818	277.356
333.0000	2.53003	-8.97764E-005	0.226925	277.468
332.5000	2.39465	-9.26448E-005	0.22767	277.574
332.0000	2.45561	-8.26412E-005	0.228549	277.685
331.5000	2.73178	-7.9442E-005	0.229757	277.806
331.0000	2.84889	-7.17585E-005	0.231265	277.951
330.5000	2.77193	-7.94106E-005	0.232371	278.08
330.0000	2.72372	-9.64271E-005	0.23362	278.213
329.5000	2.89465	-0.000100274	0.234882	278.348
329.0000	2.81652	-0.0001358	0.236004	278.48
328.5000	2.79512	-0.000134532	0.237278	278.615
328.0000	2.72185	-0.000136651	0.238256	278.732
327.5000	2.61469	-0.000147308	0.239416	278.849
327.0000	2.46657	-0.000164996	0.240774	278.959
326.5000	2.51185	-0.000157468	0.242473	279.098
326.0000	2.23651	-0.000170418	0.244129	279.23
325.5000	2.38748	-0.000160154	0.245663	279.372
325.0000	2.44256	-0.000163902	0.246913	279.518
324.5000	2.65891	-0.000177581	0.248387	279.671
324.0000	2.77232	-0.000191576	0.250332	279.849
323.5000	2.79261	-0.000191931	0.252405	280.029
323.0000	2.57545	-0.000210444	0.254167	280.206
322.5000	2.34175	-0.000228334	0.25585	280.379
322.0000	2.28508	-0.000232371	0.257391	280.552
321.5000	2.30062	-0.000229217	0.25935	280.741
321.0000	2.40572	-0.000243019	0.261308	280.927
320.5000	2.45653	-0.000246144	0.263291	281.11
320.0000	2.58991	-0.000242053	0.264989	281.281
319.5000	2.62166	-0.00025947	0.266887	281.469
319.0000	2.76598	-0.000242846	0.268809	281.685
318.5000	2.83752	-0.000244987	0.270723	281.909
318.0000	2.88686	-0.000257653	0.272306	282.097
317.5000	3.30673	-0.000260448	0.273979	282.275
317.0000	3.26452	-0.00026267	0.276007	282.459
316.5000	3.22751	-0.000260246	0.278131	282.637
316.0000	3.24215	-0.000267904	0.280351	282.827
315.5000	3.27134	-0.000273687	0.282139	283.011
315.0000	3.3031	-0.000273296	0.284046	283.218
314.5000	3.33214	-0.000266387	0.285895	283.419
314.0000	3.63176	-0.000257513	0.28806	283.639
313.5000	3.75591	-0.000262219	0.29013	283.848
313.0000	4.04513	-0.00025098	0.292215	284.069
312.5000	4.09031	-0.000251067	0.294153	284.287
312.0000	4.04539	-0.000262365	0.29642	284.517
311.5000	4.14636	-0.000259077	0.298635	284.755
311.0000	4.16797	-0.000261039	0.301131	284.996
310.5000	4.06702	-0.000283187	0.303485	285.265
310.0000	3.96109	-0.000287979	0.305927	285.521
309.5000	3.85746	-0.000300044	0.308841	285.817
309.0000	3.7574	-0.0003075	0.311934	286.137
308.5000	3.88972	-0.00031383	0.314827	286.469
308.0000	3.94616	-0.000303911	0.317512	286.776
307.5000	4.02452	-0.000298739	0.320676	287.122
307.0000	4.17121	-0.000302283	0.324	287.463
306.5000	4.22455	-0.000304985	0.327585	287.83
306.0000	4.56694	-0.000315673	0.331287	288.194
305.5000	4.47519	-0.000322908	0.33498	288.586
305.0000	4.52323	-0.000317532	0.338738	288.973
304.5000	4.43896	-0.000318439	0.343144	289.408
304.0000	4.34628	-0.000317998	0.347982	289.875
303.5000	4.19683	-0.000310385	0.352817	290.344
303.0000	4.11679	-0.000317043	0.357935	290.863
302.5000	4.13804	-0.000332043	0.363352	291.416
302.0000	4.20805	-0.00031962	0.369003	291.973
301.5000	4.21663	-0.000305459	0.374896	292.551
301.0000	4.42815	-0.000296736	0.380549	293.128
300.5000	4.47395	-0.000299658	0.385785	293.665
300.0000	4.33084	-0.000305551	0.392326	294.302
299.5000	4.236	-0.000312784	0.398599	294.926
299.0000	4.20321	-0.000315685	0.404772	295.555
298.5000	4.01753	-0.000319018	0.411018	296.204
298.0000	3.82605	-0.000330625	0.417093	296.826
297.5000	3.56904	-0.000328582	0.423372	297.464
297.0000	3.52903	-0.000329256	0.429577	298.049
296.5000	3.22591	-0.000342818	0.435436	298.621
296.0000	3.2244	-0.000346148	0.441294	299.199
295.5000	3.34722	-0.000323574	0.447038	299.739
295.0000	3.34169	-0.000327808	0.452492	300.235
294.5000	3.23799	-0.000325773	0.457898	300.738
294.0000	2.94654	-0.000323578	0.463084	301.264
293.5000	2.86523	-0.00032023	0.46741	301.72
293.0000	2.69666	-0.000317291	0.472135	302.208
292.5000	2.66992	-0.000320479	0.476814	302.713
292.0000	2.50198	-0.000304366	0.481007	303.183
291.5000	2.6355	-0.00029457	0.485259	303.647
291.0000	2.5213	-0.00029952	0.489499	304.106
290.5000	2.23447	-0.000297551	0.493932	304.579
290.0000	2.2984	-0.000274961	0.498458	305.042
289.5000	2.03278	-0.000268107	0.502342	305.471
289.0000	1.98615	-0.000260177	0.506193	305.904
288.5000	1.84363	-0.000257066	0.510414	306.386
288.0000	1.76413	-0.000241136	0.51456	306.864
287.5000	1.73687	-0.000250863	0.518876	307.37
287.0000	1.63705	-0.000252662	0.523082	307.908
286.5000	1.56959	-0.000243547	0.526998	308.438
286.0000	1.63983	-0.000214861	0.531081	308.948
285.5000	1.56357	-0.00020689	0.535669	309.457
285.0000	1.52338	-0.000172546	0.540497	309.996
284.5000	1.42763	-0.000164316	0.544792	310.484
284.0000	1.32939	-0.00014081	0.549507	311.014
283.5000	1.33942	-0.000114709	0.554461	311.556
283.0000	1.18317	-0.000107135	0.559104	312.071
282.5000	1.3076	-6.9553E-005	0.56432	312.642
282.0000	1.44839	-5.94259E-005	0.569382	313.232
281.5000	1.44976	-4.96701E-005	0.574203	313.801
281.0000	1.66977	-1.48612E-005	0.579327	314.381
280.5000	1.73883	-1.4991E-006	0.584732	315.015
280.0000	1.92631	1.69699E-005	0.590372	315.671
279.5000	2.01501	4.66053E-005	0.596073	316.344
279.0000	2.13968	6.10108E-005	0.601636	317.013
278.5000	2.15071	7.66049E-005	0.607947	317.753
278.0000	2.17153	7.86226E-005	0.615313	318.563
277.5000	2.39326	9.08335E-005	0.622131	319.317
277.0000	2.56814	9.46129E-005	0.629369	320.146
276.5000	3.03607	0.000116704	0.636766	321.008
276.0000	3.19307	0.000141677	0.643723	321.812
275.5000	3.42219	0.000154416	0.651964	322.733
275.0000	3.47677	0.00016549	0.660559	323.699
274.5000	3.64118	0.000196739	0.669516	324.727
274.0000	3.44891	0.000190259	0.678979	325.845
273.5000	3.49051	0.000211385	0.688349	326.914
273.0000	3.61364	0.00024102	0.698677	328.088
272.5000	3.56329	0.000259775	0.70938	329.316
272.0000	3.82286	0.000268097	0.720472	330.606
271.5000	4.17569	0.000282332	0.732621	332.022
271.0000	4.30131	0.000303261	0.745049	333.436
270.5000	4.37189	0.000298128	0.758122	334.908
270.0000	4.16249	0.000303767	0.771512	336.456
269.5000	3.90261	0.000329571	0.785243	338.084
269.0000	3.77467	0.000342882	0.799071	339.711
268.5000	3.24286	0.000331954	0.814402	341.505
268.0000	2.73255	0.000297363	0.830541	343.386
267.5000	2.48485	0.000301316	0.847251	345.348
267.0000	2.09278	0.000288176	0.865337	347.514
266.5000	1.80119	0.000275531	0.88384	349.762
266.0000	1.49023	0.000269129	0.901653	351.88
265.5000	0.740047	0.000272683	0.921061	354.168
265.0000	0.224383	0.000238642	0.941605	356.647
264.5000	-0.410712	0.000186455	0.961407	359.075
264.0000	-1.24439	0.000169166	0.981396	361.542
263.5000	-2.44754	0.000153468	1.00302	364.19
263.0000	-3.79568	0.000127917	1.0228	366.628
262.5000	-5.05253	9.24464E-005	1.04463	369.377
262.0000	-6.1428	8.47509E-005	1.06524	372.034
261.5000	-7.00241	6.56808E-005	1.08621	374.719
261.0000	-7.54593	2.60353E-005	1.10678	377.314
260.5000	-8.75865	-3.9112E-005	1.12852	380.091
260.0000	-9.78641	-3.35636E-005	1.15071	382.956
259.5000	-10.973	-3.07718E-005	1.17325	385.899
259.0000	-12.0896	-8.78763E-005	1.19614	388.929
258.5000	-13.1413	-0.000125611	1.22002	392.061
258.0000	-14.1684	-0.000165383	1.2446	395.298
257.5000	-15.2644	-0.000186611	1.26858	398.469
257.0000	-16.3324	-0.00022288	1.29481	401.955
256.5000	-17.4115	-0.000206368	1.32064	405.395
256.0000	-18.9416	-0.000211545	1.34932	409.206
255.5000	-19.947	-0.000262944	1.37939	413.203
255.0000	-21.7224	-0.000334395	1.41069	417.402
254.5000	-22.6377	-0.000321026	1.44149	421.559
254.0000	-23.9565	-0.000355528	1.47352	425.898
253.5000	-25.7164	-0.000380763	1.51092	430.933
253.0000	-26.498	-0.000453113	1.54611	435.733
252.5000	-29.5403	-0.000538079	1.60008	443.218
252.0000	-30.5284	-0.000511944	1.64678	449.739
251.5000	-31.3681	-0.000565621	1.68907	455.679
251.0000	-32.3603	-0.000520921	1.73321	461.885
250.5000	-33.2914	-0.000604949	1.77876	468.382
250.0000	-36.0252	-0.00065143	1.82341	474.834
249.5000	-37.6579	-0.000655822	1.86951	481.569
249.0000	-37.5456	-0.000721161	1.91977	488.98
248.5000	-39.7287	-0.000720297	1.96947	496.358
248.0000	-40.6763	-0.000901482	2.02331	504.456
247.5000	-40.9496	-0.000751438	2.07607	512.513
247.0000	-41.2889	-0.000700423	2.13345	521.402
246.5000	-40.7595	-0.000747467	2.19319	530.753
246.0000	-40.4424	-0.000683226	2.25542	540.603
245.5000	-41.1468	-0.000744977	2.32234	551.427
245.0000	-41.7549	-0.000733029	2.3916	562.81
244.5000	-40.2149	-0.000688661	2.46332	574.782
244.0000	-39.1858	-0.000655435	2.5376	587.429
243.5000	-36.9137	-0.000714678	2.61035	600.067
243.0000	-36.3382	-0.000670941	2.68504	613.32
242.5000	-35.0479	-0.000644773	2.76948	628.624
242.0000	-33.7005	-0.000656553	2.84394	642.4
241.5000	-27.972	-0.000673325	2.92742	658.167
241.0000	-25.5687	-0.000530096	3.00369	672.884
240.5000	-25.46	-0.000434744	3.0879	689.572
240.0000	-21.5821	-0.000325104	3.16383	704.953
239.5000	-20.3002	-0.0001949	3.25084	722.99
239.0000	-19.3659	-0.000310516	3.3247	738.628
238.5000	-21.3213	-0.000206222	3.39946	754.841
238.0000	-19.4393	-9.64686E-005	3.4748	771.642
237.5000	-16.4145	0.000106092	3.53936	786.428
237.0000	-11.1542	0.000322111	3.60361	801.496
236.5000	-8.75044	0.000444282	3.66343	815.885
236.0000	-6.73002	0.000232493	3.71579	828.79
235.5000	-4.31187	0.000503317	3.77053	842.723
235.0000	-4.56794	0.000590488	3.80412	851.528
234.5000	-1.84303	0.000837418	3.83678	860.287
234.0000	-1.09018	0.000850884	3.86772	868.814
233.5000	-2.11267	0.000818509	3.89816	877.449
233.0000	-2.47168	0.00100628	3.92518	885.47
232.5000	-2.33066	0.000921384	3.94601	892.101
232.0000	-0.517745	0.000847367	3.96463	898.61
231.5000	-0.963338	0.000705718	3.97563	903.036
231.0000	1.51854	0.000752638	3.98402	907.097
230.5000	-0.366683	0.00111968	3.98867	910.386
230.0000	-1.32546	0.00114152	3.98979	912.844
229.5000	-0.291744	0.00128735	3.98841	914.832
229.0000	-1.42943	0.00107025	3.98495	916.387
228.5000	-5.03571	0.00085304	3.97982	917.527
228.0000	-4.76313	0.00102261	3.97366	918.331
227.5000	-7.5284	0.0011075	3.96565	918.952
227.0000	-4.24713	0.00106495	3.95672	919.382
226.5000	-4.75385	0.000518098	3.94681	919.726
226.0000	-5.09828	0.000401355	3.93719	919.956
225.5000	-4.49368	0.00053869	3.9266	920.148
225.0000	-4.66724	0.000380389	3.91503	920.255
224.5000	-5.35449	0.000187128	3.90294	920.309
224.0000	-5.7939	0.000284519	3.89092	920.366
223.5000	-3.59219	0.000157459	3.87915	920.416
223.0000	-1.56075	0.000381739	3.86758	920.476
222.5000	-1.65082	-0.000197622	3.85314	920.523
222.0000	-3.87427	-0.000461085	3.83985	920.564
221.5000	0.43209	-0.000556424	3.82583	920.603
221.0000	0.0147503	-0.000237802	3.81367	920.598
220.5000	2.19037	-0.000364821	3.8014	920.596
220.0000	-0.452135	-0.000385874	3.78851	920.615

##### Extended Information
[Comments]
Sample name	JS187+JS190_5E-5_H2O_10-90_100EQDT+72H
Comment
User
Division
Company	Labo systeme complexes hors equilibre

[Detailed Information]
Creation date	1/26/2024 12:21 PM

Data array type	Linear data array * 4
Horizontal axis	Wavelength [nm]
Vertical axis(1)	CD [mdeg]
Vertical axis(2)	LD [dOD]
Vertical axis(3)	Abs
Vertical axis(4)	HT [V]
Start	700 nm
End	220 nm
Data interval	0.5 nm
Data points	961     

[Measurement Information]
Instrument name	CD Jasco
Model name	J-1500
Serial No.	A005261638

Detector	PM-539
Detector S/N	A0052PM539
  Lock-in amp.	X mode
  HT volt	Auto

Detector	EXPML-535
Detector S/N	A0001
  Lock-in amp.	X mode
  HT volt	Auto

Measurement date	1/26/2024 12:21 PM

Overload detect	1
Photometric mode	CD, LD, Abs, HT
Measure range	700 - 220 nm
Data pitch	0.5 nm
CD scale	200 mdeg/1.0 dOD
FL scale	200 mdeg/1.0 dOD
D.I.T.	1 sec
Bandwidth	1.00 nm
Start mode	Immediately
Scanning speed	500 nm/min
Baseline correction	Baseline
Shutter control	Auto


