TITLE	Pure S
DATA TYPE	
ORIGIN	JASCO
OWNER	
DATE	25/11/20
TIME	10:27:02
SPECTROMETER/DATA SYSTEM	
LOCALE	1033
RESOLUTION	
DELTAX	-0.5
XUNITS	NANOMETERS
YUNITS	CD [mdeg]
Y2UNITS	LD [dOD]
Y3UNITS	ABSORBANCE
Y4UNITS	HT [V]
FIRSTX	  700.0000
LASTX	  300.0000
NPOINTS	     801
FIRSTY	    -0.53968
MAXY	    64.25394
MINY	   -41.38396
XYDATA
700.0000	-0.539681	-0.000102103	-0.0512397	319.177
699.5000	-0.782528	-0.000114044	-0.0519517	318.716
699.0000	-0.920495	-0.000147796	-0.0530769	318.19
698.5000	-1.31228	-0.000148678	-0.0537994	317.592
698.0000	-1.24784	-0.000143788	-0.0527814	316.944
697.5000	-1.48754	-0.000178803	-0.0513576	316.275
697.0000	-1.67038	-0.000213105	-0.050488	315.559
696.5000	-1.31723	-0.000178123	-0.0500113	314.891
696.0000	-1.61657	-0.000181262	-0.0479413	314.212
695.5000	-1.19567	-0.000173429	-0.0449526	313.605
695.0000	-1.46875	-0.000192506	-0.0400634	313.111
694.5000	-1.43035	-0.00018418	-0.0377561	312.681
694.0000	-1.19721	-0.000160386	-0.0349658	312.299
693.5000	-1.32505	-0.000137074	-0.03321	311.962
693.0000	-1.23161	-0.000115389	-0.0308622	311.7
692.5000	-1.23762	-0.000109619	-0.0295791	311.448
692.0000	-0.999813	-0.000107437	-0.0273971	311.235
691.5000	-0.760157	-0.000103634	-0.0250635	311.055
691.0000	-0.859525	-7.81115E-005	-0.0221808	310.9
690.5000	-0.496614	-5.33909E-005	-0.0197447	310.828
690.0000	-0.561841	-7.32807E-005	-0.0187154	310.845
689.5000	-0.704203	-4.44995E-005	-0.0176076	311.003
689.0000	-0.828833	-4.33057E-005	-0.0177111	311.254
688.5000	-1.13591	-5.93357E-005	-0.017272	311.596
688.0000	-1.16405	-6.54096E-005	-0.0179458	311.973
687.5000	-1.31242	-3.78058E-005	-0.0196986	312.351
687.0000	-1.25054	-3.83814E-005	-0.020913	312.663
686.5000	-1.13045	-2.13812E-005	-0.0224183	312.957
686.0000	-1.29373	-1.07718E-005	-0.0243019	313.216
685.5000	-1.70418	-2.33036E-005	-0.0251774	313.477
685.0000	-1.7494	-3.3903E-005	-0.0252468	313.722
684.5000	-1.24457	-4.18099E-005	-0.0249323	313.97
684.0000	-1.52935	-5.63987E-005	-0.0254717	314.219
683.5000	-1.75144	-5.48062E-005	-0.0264727	314.494
683.0000	-1.82889	-8.63684E-005	-0.0280311	314.805
682.5000	-1.96202	-8.89485E-005	-0.0287777	315.11
682.0000	-2.26471	-8.15384E-005	-0.0294231	315.395
681.5000	-1.98873	-7.54292E-005	-0.0304696	315.605
681.0000	-1.94404	-0.000100428	-0.0310814	315.717
680.5000	-1.55307	-9.38159E-005	-0.0331166	315.732
680.0000	-1.51141	-7.32043E-005	-0.0340487	315.701
679.5000	-1.23486	-5.26082E-005	-0.0355378	315.648
679.0000	-1.63422	-8.79753E-005	-0.0358435	315.587
678.5000	-1.58732	-0.000105759	-0.0350166	315.545
678.0000	-1.53827	-0.000134229	-0.0343391	315.486
677.5000	-1.41836	-0.000138611	-0.0339307	315.431
677.0000	-1.09429	-0.000125855	-0.0328211	315.392
676.5000	-1.24541	-0.000138672	-0.0327012	315.363
676.0000	-1.36432	-0.000132056	-0.0317429	315.343
675.5000	-1.27965	-0.000114976	-0.0307878	315.32
675.0000	-1.35862	-9.22273E-005	-0.0290844	315.317
674.5000	-1.19181	-7.89883E-005	-0.0303385	315.303
674.0000	-0.837568	-5.45242E-005	-0.0304304	315.309
673.5000	-0.564871	-5.0402E-005	-0.030527	315.326
673.0000	-0.521509	-1.33944E-005	-0.0307109	315.363
672.5000	-0.666498	-4.63599E-005	-0.0297854	315.412
672.0000	-0.755734	-5.7212E-005	-0.0278343	315.479
671.5000	-0.716081	-6.5733E-005	-0.0267106	315.543
671.0000	-0.72195	-5.08874E-005	-0.0271382	315.604
670.5000	-0.63889	-4.80421E-005	-0.0280388	315.675
670.0000	-0.770478	-2.18508E-005	-0.0281696	315.735
669.5000	-0.754566	-3.67523E-005	-0.0287846	315.809
669.0000	-1.06458	-7.25405E-005	-0.0290512	315.894
668.5000	-0.857846	-6.38485E-005	-0.0291413	315.971
668.0000	-0.964889	-7.52744E-005	-0.0288328	316.067
667.5000	-1.26751	-0.000108131	-0.029508	316.171
667.0000	-1.16192	-0.000120688	-0.031165	316.287
666.5000	-1.18681	-0.000126005	-0.030781	316.397
666.0000	-1.15213	-0.000137617	-0.0307959	316.51
665.5000	-1.58893	-0.000155379	-0.0296676	316.62
665.0000	-1.73933	-0.00018083	-0.0293103	316.709
664.5000	-1.65638	-0.000180233	-0.0289309	316.78
664.0000	-1.39914	-0.000164822	-0.0304896	316.814
663.5000	-1.48171	-0.000180744	-0.0324604	316.837
663.0000	-1.13971	-0.000201152	-0.0327843	316.862
662.5000	-1.23992	-0.000203719	-0.0325349	316.87
662.0000	-1.25775	-0.000192115	-0.0311739	316.876
661.5000	-1.37473	-0.000189491	-0.0305429	316.873
661.0000	-1.30664	-0.000156658	-0.0298478	316.856
660.5000	-1.69731	-0.000174575	-0.0318678	316.82
660.0000	-1.59676	-0.000160966	-0.0327038	316.762
659.5000	-1.50813	-0.000132846	-0.0332375	316.672
659.0000	-1.58433	-0.000140804	-0.0318608	316.547
658.5000	-1.6765	-0.000168967	-0.0315583	316.389
658.0000	-1.80019	-0.000172955	-0.0321022	316.19
657.5000	-1.85896	-0.000181783	-0.0330875	315.964
657.0000	-1.9007	-0.000169159	-0.0335732	315.746
656.5000	-2.02969	-0.000161788	-0.0333617	315.495
656.0000	-2.37394	-0.000139965	-0.0325972	315.255
655.5000	-2.38189	-0.00013263	-0.0302109	315.015
655.0000	-2.52531	-0.000143486	-0.0278746	314.785
654.5000	-2.39647	-0.000109301	-0.0259135	314.574
654.0000	-2.19885	-0.000134727	-0.0252701	314.378
653.5000	-2.22262	-0.000156833	-0.0246739	314.222
653.0000	-2.12698	-0.000141167	-0.024391	314.084
652.5000	-1.91851	-0.000115696	-0.0235274	313.993
652.0000	-1.61123	-0.000113651	-0.0210835	313.932
651.5000	-1.6087	-0.000107766	-0.0192215	313.91
651.0000	-1.55054	-0.00010751	-0.0182022	313.917
650.5000	-1.49049	-8.2348E-005	-0.0180015	313.97
650.0000	-1.3184	-6.03958E-005	-0.0184271	314.052
649.5000	-1.26571	-4.06145E-005	-0.0185712	314.181
649.0000	-1.12645	-3.91326E-005	-0.017284	314.321
648.5000	-1.18365	-4.02223E-005	-0.017291	314.486
648.0000	-1.14081	-5.46648E-005	-0.0170643	314.656
647.5000	-0.936676	-6.68442E-005	-0.0182945	314.83
647.0000	-1.15778	-6.04634E-005	-0.0193179	315.018
646.5000	-1.314	-7.1049E-005	-0.0212626	315.174
646.0000	-1.24074	-6.97318E-005	-0.0218867	315.314
645.5000	-0.993864	-5.23661E-005	-0.0227228	315.411
645.0000	-0.901975	-6.39458E-005	-0.0238116	315.486
644.5000	-1.05609	-8.43539E-005	-0.0251528	315.509
644.0000	-1.35208	-8.71224E-005	-0.0261001	315.502
643.5000	-1.28867	-8.92013E-005	-0.0272492	315.479
643.0000	-1.52317	-0.000108978	-0.0267518	315.417
642.5000	-1.49891	-0.000138163	-0.0258486	315.357
642.0000	-1.86926	-0.000142396	-0.024672	315.27
641.5000	-1.86526	-0.000143387	-0.0242006	315.178
641.0000	-1.59421	-0.000160186	-0.0230303	315.053
640.5000	-1.8264	-0.000168905	-0.0221704	314.935
640.0000	-1.52907	-0.00016644	-0.0220977	314.816
639.5000	-1.63594	-0.000161603	-0.020476	314.682
639.0000	-1.20629	-0.000164804	-0.018744	314.543
638.5000	-0.930857	-0.000128333	-0.0163552	314.408
638.0000	-1.0492	-0.000116702	-0.015196	314.275
637.5000	-1.4114	-0.000113536	-0.0150357	314.144
637.0000	-1.46821	-9.63333E-005	-0.0136509	314.011
636.5000	-1.39194	-9.22847E-005	-0.0109012	313.929
636.0000	-1.33146	-0.000112881	-0.00900355	313.858
635.5000	-1.40561	-0.000111088	-0.00797459	313.789
635.0000	-1.39142	-9.95737E-005	-0.00640254	313.739
634.5000	-1.68846	-4.94012E-005	-0.00553412	313.693
634.0000	-1.18842	-5.47454E-005	-0.00501847	313.635
633.5000	-1.41323	-6.85613E-005	-0.00439846	313.586
633.0000	-1.35717	-6.59202E-005	-0.00456544	313.548
632.5000	-1.49632	-5.18246E-005	-0.00510658	313.508
632.0000	-1.55204	-4.64177E-005	-0.00555405	313.458
631.5000	-1.35686	-3.39694E-005	-0.00441574	313.422
631.0000	-1.71422	-4.28786E-005	-0.00397344	313.365
630.5000	-1.69243	-1.80427E-005	-0.00342955	313.308
630.0000	-1.87602	-5.16996E-005	-0.00316268	313.242
629.5000	-1.63043	-7.34607E-005	-0.00306063	313.18
629.0000	-1.7959	-8.29597E-005	-0.00129618	313.121
628.5000	-1.90316	-9.20904E-005	-0.000856553	313.056
628.0000	-1.98346	-8.59288E-005	-0.000523099	312.955
627.5000	-1.88608	-7.87435E-005	0.000251453	312.865
627.0000	-1.86288	-8.89798E-005	0.00131273	312.785
626.5000	-1.9019	-8.52708E-005	0.00274031	312.722
626.0000	-1.77311	-0.000120883	0.00251415	312.662
625.5000	-2.03535	-0.000144318	0.00385818	312.631
625.0000	-2.2689	-0.000149963	0.00633803	312.621
624.5000	-2.17239	-0.000153105	0.00814309	312.608
624.0000	-1.92628	-0.000166203	0.00860144	312.604
623.5000	-1.74644	-0.000157516	0.0099907	312.627
623.0000	-1.9081	-0.000158546	0.0105805	312.681
622.5000	-2.05669	-0.000149539	0.0117169	312.752
622.0000	-2.18759	-0.000129665	0.0118604	312.84
621.5000	-1.9632	-9.25408E-005	0.0126131	312.927
621.0000	-2.38024	-8.79478E-005	0.0139787	313.026
620.5000	-2.3173	-8.47904E-005	0.0147164	313.141
620.0000	-2.27778	-6.64178E-005	0.0145014	313.272
619.5000	-2.33642	-5.92175E-005	0.0140113	313.452
619.0000	-2.35788	-3.1597E-005	0.0151333	313.652
618.5000	-2.27806	-3.47387E-005	0.0159623	313.857
618.0000	-2.38713	-5.33916E-005	0.0158495	314.043
617.5000	-2.41522	-1.4916E-005	0.0147111	314.23
617.0000	-2.39377	-2.56537E-006	0.0143045	314.423
616.5000	-2.6533	2.5408E-007	0.0133954	314.607
616.0000	-2.92661	2.62259E-005	0.0144013	314.794
615.5000	-3.41153	4.97604E-005	0.0154778	314.975
615.0000	-3.15096	5.40493E-005	0.0155636	315.135
614.5000	-2.813	5.75057E-005	0.0162547	315.291
614.0000	-2.56139	4.83051E-005	0.0167325	315.435
613.5000	-2.73459	4.55154E-005	0.0163948	315.599
613.0000	-2.38333	4.23402E-005	0.0164045	315.766
612.5000	-2.2235	7.08747E-005	0.0166646	315.918
612.0000	-2.235	5.59031E-005	0.0188506	316.067
611.5000	-2.42631	4.26462E-005	0.0200912	316.205
611.0000	-2.3493	3.06579E-005	0.0201808	316.339
610.5000	-2.49871	3.77097E-005	0.0202318	316.464
610.0000	-2.22922	6.2465E-005	0.021004	316.592
609.5000	-1.97305	6.97751E-005	0.0238036	316.714
609.0000	-2.03957	6.67139E-005	0.0260644	316.821
608.5000	-2.02915	7.62798E-005	0.0279622	316.917
608.0000	-1.87418	7.06616E-005	0.0284136	317.004
607.5000	-1.83898	5.88031E-005	0.0293279	317.086
607.0000	-1.7574	7.01616E-005	0.0288218	317.182
606.5000	-2.23646	4.85359E-005	0.0289971	317.289
606.0000	-2.47583	3.94505E-005	0.0300335	317.389
605.5000	-2.33182	2.39456E-005	0.0312028	317.485
605.0000	-2.55693	3.21856E-005	0.0334096	317.579
604.5000	-2.64787	1.76123E-005	0.0348327	317.654
604.0000	-2.62607	2.1899E-005	0.0358108	317.731
603.5000	-2.34837	5.14109E-005	0.0364454	317.799
603.0000	-2.4139	6.52747E-005	0.0365991	317.87
602.5000	-2.48691	5.78405E-005	0.038654	317.949
602.0000	-2.34682	7.88583E-005	0.0400304	318.021
601.5000	-2.46873	7.46141E-005	0.0426365	318.093
601.0000	-2.66381	4.6044E-005	0.0434469	318.164
600.5000	-2.18586	6.05217E-005	0.0444865	318.215
600.0000	-2.20073	7.15049E-005	0.0466813	318.258
599.5000	-2.11189	5.94001E-005	0.0503716	318.311
599.0000	-2.18863	4.04777E-005	0.0535057	318.344
598.5000	-2.164	1.64187E-005	0.0561662	318.347
598.0000	-1.86446	4.64263E-005	0.0588514	318.351
597.5000	-1.53095	7.48358E-005	0.0615388	318.351
597.0000	-1.7096	6.02409E-005	0.0635577	318.36
596.5000	-1.44266	6.43349E-005	0.0655839	318.357
596.0000	-1.42434	6.61533E-005	0.0681055	318.38
595.5000	-1.17042	5.93017E-005	0.0706626	318.395
595.0000	-0.982214	5.47534E-005	0.0748647	318.385
594.5000	-0.81537	4.26904E-005	0.0772855	318.386
594.0000	-0.910984	5.03503E-005	0.0803059	318.402
593.5000	-0.548965	6.14445E-005	0.0829334	318.411
593.0000	-0.556182	7.7212E-005	0.0864515	318.446
592.5000	-0.410123	7.06073E-005	0.0899596	318.51
592.0000	0.0180515	0.000101787	0.0925462	318.604
591.5000	0.348003	0.000109463	0.0948397	318.675
591.0000	0.597298	0.000135775	0.0986905	318.77
590.5000	0.663195	0.00012598	0.102532	318.92
590.0000	0.870645	0.000146059	0.106708	319.097
589.5000	1.17582	0.000128581	0.108908	319.284
589.0000	1.41526	0.000141229	0.113531	319.478
588.5000	1.72049	0.00017422	0.118267	319.686
588.0000	2.07143	0.000178961	0.123327	319.932
587.5000	2.29728	0.000200163	0.127209	320.211
587.0000	2.65627	0.00023253	0.132467	320.562
586.5000	3.04598	0.000277741	0.138831	320.917
586.0000	3.73538	0.000313498	0.143618	321.282
585.5000	3.89422	0.000318592	0.148365	321.676
585.0000	4.4006	0.000349093	0.15338	322.082
584.5000	4.51453	0.000374841	0.158621	322.497
584.0000	5.06647	0.000401559	0.164056	322.966
583.5000	5.23874	0.000433743	0.168698	323.481
583.0000	5.66325	0.000489149	0.176096	324.056
582.5000	6.50919	0.000526647	0.182581	324.654
582.0000	7.26199	0.000586975	0.18896	325.242
581.5000	7.86736	0.000638281	0.197033	325.919
581.0000	8.54769	0.000677769	0.205911	326.628
580.5000	9.37895	0.000715631	0.214039	327.396
580.0000	10.1412	0.000755221	0.221754	328.168
579.5000	11.085	0.000803757	0.230083	328.982
579.0000	12.1952	0.000841439	0.239305	329.804
578.5000	13.5847	0.000871574	0.248252	330.639
578.0000	14.2115	0.000932322	0.257412	331.546
577.5000	15.3068	0.000976536	0.267444	332.564
577.0000	16.7452	0.0010342	0.278643	333.577
576.5000	18.1876	0.00111123	0.291995	334.704
576.0000	19.8227	0.00117227	0.304793	335.807
575.5000	21.4658	0.00124689	0.318887	336.996
575.0000	23.0934	0.0012999	0.330826	338.158
574.5000	24.7915	0.00137188	0.343589	339.438
574.0000	26.5329	0.00144517	0.358224	340.717
573.5000	28.1472	0.00150932	0.371854	342.033
573.0000	29.8312	0.00157082	0.386831	343.475
572.5000	31.8758	0.00162532	0.40168	344.854
572.0000	33.8467	0.00171954	0.419322	346.431
571.5000	35.8057	0.00180898	0.436206	348.003
571.0000	37.9416	0.00190913	0.454735	349.678
570.5000	39.8948	0.00199584	0.472096	351.435
570.0000	41.9135	0.0020988	0.489305	353.147
569.5000	43.7039	0.00216596	0.507588	354.938
569.0000	46.2225	0.00226924	0.526448	356.746
568.5000	48.2488	0.00236719	0.542549	358.482
568.0000	49.9825	0.0024316	0.559427	360.296
567.5000	52.3221	0.00251472	0.57741	362.138
567.0000	53.7938	0.00261033	0.594488	363.9
566.5000	55.808	0.0026954	0.611436	365.615
566.0000	56.9288	0.00275623	0.627101	367.28
565.5000	58.3457	0.0028044	0.643815	368.926
565.0000	60.1595	0.0028743	0.658964	370.491
564.5000	60.9411	0.00289486	0.673929	372.02
564.0000	61.7725	0.00293757	0.687401	373.417
563.5000	62.3429	0.00294279	0.700869	374.742
563.0000	63.1501	0.00296411	0.714787	376.075
562.5000	63.6079	0.002986	0.726552	377.228
562.0000	63.8391	0.00301478	0.738783	378.307
561.5000	64.2539	0.00303646	0.750545	379.408
561.0000	64.1758	0.0030519	0.761944	380.43
560.5000	63.7291	0.0029963	0.772162	381.337
560.0000	63.5478	0.00296628	0.781614	382.166
559.5000	62.7303	0.00294565	0.79008	382.834
559.0000	61.87	0.00286165	0.795743	383.337
558.5000	60.7423	0.00275697	0.800927	383.713
558.0000	59.9245	0.00272522	0.8053	383.977
557.5000	59.6833	0.00266766	0.807793	384.18
557.0000	58.2255	0.00257577	0.810074	384.277
556.5000	56.6286	0.00245902	0.811581	384.289
556.0000	55.3772	0.00243501	0.813167	384.186
555.5000	54.1602	0.00237632	0.813261	383.968
555.0000	52.463	0.00226763	0.811216	383.666
554.5000	51.02	0.00219851	0.808023	383.283
554.0000	49.349	0.002102	0.805677	382.841
553.5000	48.0218	0.00204279	0.803255	382.348
553.0000	47.0219	0.00193596	0.799813	381.811
552.5000	45.9593	0.00185644	0.795458	381.232
552.0000	44.7303	0.00180737	0.790606	380.554
551.5000	43.7481	0.00176329	0.78671	379.909
551.0000	43.2739	0.00173161	0.782368	379.238
550.5000	42.5009	0.00170548	0.777401	378.523
550.0000	41.7919	0.00168255	0.772592	377.78
549.5000	41.1006	0.00163157	0.768552	377.056
549.0000	40.1497	0.00163371	0.765041	376.345
548.5000	40.1158	0.00166705	0.760478	375.672
548.0000	39.95	0.00168217	0.756272	374.984
547.5000	39.7497	0.00168351	0.752665	374.379
547.0000	40.1395	0.0017035	0.748544	373.774
546.5000	39.6017	0.00169594	0.745725	373.252
546.0000	40.1119	0.00170236	0.74222	372.797
545.5000	40.4742	0.00166878	0.738258	372.35
545.0000	40.5824	0.00168809	0.736314	372.021
544.5000	40.6763	0.00173197	0.735409	371.719
544.0000	41.2623	0.00173551	0.734611	371.497
543.5000	41.559	0.00172844	0.734392	371.32
543.0000	42.0442	0.00178026	0.734274	371.193
542.5000	42.5751	0.00182863	0.73531	371.139
542.0000	43.0685	0.00184177	0.736727	371.152
541.5000	43.5389	0.0018808	0.738977	371.263
541.0000	44.1694	0.00192658	0.74059	371.412
540.5000	45.0798	0.00195597	0.744245	371.63
540.0000	45.5286	0.00199208	0.747169	371.888
539.5000	46.0876	0.00198852	0.750929	372.224
539.0000	46.8455	0.00198995	0.755966	372.651
538.5000	47.8754	0.00200327	0.763264	373.127
538.0000	48.459	0.00205121	0.769105	373.631
537.5000	49.0067	0.00205443	0.777957	374.208
537.0000	49.709	0.00208174	0.786183	374.869
536.5000	50.7453	0.0021227	0.793721	375.531
536.0000	50.9848	0.00215995	0.801598	376.277
535.5000	51.7208	0.00217262	0.810511	377.036
535.0000	52.0437	0.0021926	0.820275	377.883
534.5000	52.6026	0.00220018	0.829402	378.709
534.0000	53.0454	0.0021789	0.838391	379.598
533.5000	53.7925	0.00216591	0.848923	380.519
533.0000	54.4067	0.00221144	0.857941	381.414
532.5000	54.8555	0.00217144	0.867105	382.344
532.0000	54.9191	0.00217869	0.877509	383.353
531.5000	54.9373	0.00217918	0.888345	384.371
531.0000	55.6178	0.00222547	0.899818	385.426
530.5000	55.0291	0.00221414	0.910673	386.451
530.0000	55.2859	0.00222384	0.921179	387.518
529.5000	55.0856	0.00223255	0.930763	388.544
529.0000	55.1962	0.00220503	0.939539	389.483
528.5000	54.3714	0.00220531	0.948233	390.422
528.0000	53.9972	0.00217956	0.956834	391.308
527.5000	54.2895	0.00216308	0.967014	392.204
527.0000	53.4423	0.00213826	0.976462	393.162
526.5000	52.3618	0.00207335	0.985779	394.057
526.0000	51.6996	0.00207285	0.995358	394.948
525.5000	50.9356	0.00200955	1.00429	395.792
525.0000	50.1943	0.00194743	1.01311	396.589
524.5000	48.7349	0.00190257	1.02125	397.292
524.0000	47.5362	0.00185862	1.02854	397.914
523.5000	46.6873	0.00179634	1.03566	398.529
523.0000	45.3097	0.00172306	1.0417	399.094
522.5000	44.368	0.00167673	1.04747	399.588
522.0000	43.2965	0.00167021	1.05184	400.074
521.5000	41.9063	0.00155984	1.05616	400.531
521.0000	40.42	0.00147848	1.06104	400.936
520.5000	39.5533	0.00140087	1.06681	401.312
520.0000	38.3473	0.00129635	1.07203	401.601
519.5000	36.7871	0.00124775	1.07506	401.858
519.0000	35.7168	0.00116646	1.07778	402.077
518.5000	34.7113	0.00111597	1.08058	402.261
518.0000	33.5928	0.00105095	1.08304	402.445
517.5000	32.699	0.000975532	1.08641	402.616
517.0000	31.8089	0.000904281	1.08872	402.751
516.5000	30.2158	0.00086042	1.09211	402.88
516.0000	29.7414	0.000819198	1.09453	403
515.5000	28.5647	0.000774995	1.09608	403.101
515.0000	27.7526	0.000683138	1.09782	403.164
514.5000	27.0446	0.000639606	1.09806	403.236
514.0000	26.0146	0.000566795	1.09917	403.293
513.5000	24.8823	0.000486288	1.10201	403.346
513.0000	23.9936	0.000478219	1.10512	403.393
512.5000	23.2771	0.000435305	1.10545	403.449
512.0000	22.6975	0.000404227	1.10613	403.487
511.5000	21.8497	0.000355603	1.10806	403.56
511.0000	20.7322	0.000277391	1.1104	403.623
510.5000	20.2468	0.000210427	1.11187	403.686
510.0000	19.482	0.000182517	1.11305	403.736
509.5000	19.0208	0.000146314	1.11515	403.757
509.0000	18.161	0.000134539	1.11707	403.754
508.5000	17.3589	0.000136808	1.11893	403.755
508.0000	16.6947	6.97998E-005	1.12133	403.797
507.5000	16.1597	5.86025E-005	1.12284	403.852
507.0000	15.2479	-9.86913E-006	1.12504	403.93
506.5000	14.0997	-4.17408E-005	1.12803	404.008
506.0000	13.5589	-6.35611E-005	1.13006	404.083
505.5000	13.0512	-0.000115498	1.13207	404.143
505.0000	13.0868	-0.000145746	1.13383	404.215
504.5000	12.2059	-0.000203878	1.13732	404.296
504.0000	11.712	-0.000261641	1.13921	404.345
503.5000	10.761	-0.000344215	1.14126	404.386
503.0000	10.5801	-0.000308067	1.14267	404.407
502.5000	10.0376	-0.000374795	1.1451	404.412
502.0000	9.23922	-0.000413161	1.14538	404.43
501.5000	8.04829	-0.000447282	1.14683	404.419
501.0000	7.21062	-0.00048904	1.1483	404.419
500.5000	6.18216	-0.000551187	1.14891	404.379
500.0000	5.47551	-0.000641979	1.14907	404.221
499.5000	4.02652	-0.000713525	1.14883	403.926
499.0000	3.30467	-0.000765378	1.14979	403.458
498.5000	3.13462	-0.000791965	1.15019	402.863
498.0000	2.02763	-0.000863274	1.14964	402.141
497.5000	1.20068	-0.000951406	1.14993	401.345
497.0000	0.00341206	-0.00100713	1.15103	400.676
496.5000	-1.25284	-0.00105209	1.15258	400.191
496.0000	-2.60223	-0.00114295	1.153	399.931
495.5000	-3.29739	-0.00117429	1.15362	399.752
495.0000	-4.23963	-0.00122695	1.15446	399.578
494.5000	-5.4487	-0.00130257	1.15425	399.396
494.0000	-6.84539	-0.00133792	1.1544	399.223
493.5000	-7.87972	-0.00140675	1.15475	399.025
493.0000	-9.44382	-0.00150425	1.15422	398.853
492.5000	-10.5881	-0.00152866	1.15412	398.663
492.0000	-12.1554	-0.00165633	1.15248	398.469
491.5000	-13.2122	-0.00172801	1.15255	398.327
491.0000	-14.5301	-0.00182752	1.1502	398.197
490.5000	-16.4815	-0.00194133	1.1484	398.106
490.0000	-17.9612	-0.0019905	1.14719	398.073
489.5000	-18.9999	-0.00204653	1.14639	398.01
489.0000	-20.1077	-0.0021216	1.14329	397.73
488.5000	-20.9236	-0.00217923	1.14003	397.181
488.0000	-22.0715	-0.00225857	1.13723	396.36
487.5000	-22.9771	-0.00232652	1.13428	395.396
487.0000	-23.7544	-0.00239249	1.13011	394.361
486.5000	-25.2067	-0.0024078	1.12634	393.194
486.0000	-26.279	-0.00243474	1.12311	392.181
485.5000	-26.8423	-0.00248012	1.11964	391.308
485.0000	-27.6788	-0.00252825	1.11603	390.548
484.5000	-28.8336	-0.00259922	1.11239	389.858
484.0000	-29.4053	-0.00262499	1.10959	389.175
483.5000	-30.1816	-0.00264415	1.10583	388.567
483.0000	-30.9181	-0.00265144	1.10122	387.962
482.5000	-31.3368	-0.00270223	1.0967	387.437
482.0000	-32.0261	-0.00278371	1.09188	386.93
481.5000	-32.4192	-0.00282496	1.0861	386.403
481.0000	-33.0521	-0.00285324	1.08098	385.918
480.5000	-33.2703	-0.00288196	1.07531	385.455
480.0000	-34.2904	-0.00296145	1.06888	384.907
479.5000	-34.5066	-0.00295311	1.06222	384.07
479.0000	-35.5174	-0.00297767	1.05533	382.853
478.5000	-36.035	-0.00302489	1.05009	381.696
478.0000	-36.1871	-0.003082	1.04464	380.704
477.5000	-36.506	-0.00312742	1.03917	379.989
477.0000	-37.5732	-0.00316107	1.03288	379.143
476.5000	-37.9371	-0.00321167	1.02529	377.844
476.0000	-37.6938	-0.00321221	1.01605	376.322
475.5000	-37.896	-0.00324803	1.00681	374.577
475.0000	-38.5646	-0.00327549	0.998484	372.641
474.5000	-38.3779	-0.00331659	0.991535	370.639
474.0000	-38.437	-0.00331234	0.983516	368.434
473.5000	-38.7932	-0.00327784	0.9771	365.957
473.0000	-39.1453	-0.00328025	0.971019	363.501
472.5000	-39.3005	-0.00326687	0.965658	361.301
472.0000	-39.7506	-0.00323348	0.95987	359.719
471.5000	-39.7683	-0.00323783	0.952847	358.552
471.0000	-39.8459	-0.00322796	0.947256	358.012
470.5000	-40.1609	-0.0032346	0.940798	357.68
470.0000	-40.4173	-0.00325087	0.93386	357.236
469.5000	-40.5753	-0.00324659	0.926354	356.339
469.0000	-40.2208	-0.00325199	0.917653	354.944
468.5000	-40.2701	-0.00322235	0.909494	353.492
468.0000	-40.4005	-0.00320818	0.903393	352.222
467.5000	-40.5828	-0.0031931	0.89764	351.324
467.0000	-40.2827	-0.0031933	0.892052	350.718
466.5000	-40.496	-0.0031373	0.885024	350.349
466.0000	-40.9076	-0.00310688	0.877032	350.205
465.5000	-40.8181	-0.00309144	0.869143	350.339
465.0000	-40.9217	-0.00307368	0.857547	350.633
464.5000	-41.3624	-0.00307062	0.846118	350.707
464.0000	-41.2892	-0.00305616	0.835288	350.247
463.5000	-41.0605	-0.0030349	0.825635	349.41
463.0000	-41.384	-0.00301453	0.816719	348.446
462.5000	-41.1496	-0.00297547	0.807315	347.478
462.0000	-40.9036	-0.0029148	0.797808	346.601
461.5000	-40.3651	-0.00287925	0.788262	345.911
461.0000	-40.1122	-0.00284782	0.77885	345.406
460.5000	-39.9314	-0.00281423	0.768381	344.983
460.0000	-39.652	-0.00278764	0.757015	344.558
459.5000	-39.3463	-0.00277054	0.746648	344.077
459.0000	-38.9584	-0.0027401	0.735991	343.404
458.5000	-38.5891	-0.00272225	0.724547	342.547
458.0000	-38.3973	-0.0026959	0.714407	341.433
457.5000	-37.8395	-0.00268779	0.705347	340.203
457.0000	-37.3468	-0.00264141	0.695978	338.997
456.5000	-37.0205	-0.0026182	0.685915	337.838
456.0000	-36.4455	-0.00257443	0.675011	336.509
455.5000	-36.1584	-0.00251809	0.664134	334.958
455.0000	-35.546	-0.00247565	0.654306	333.612
454.5000	-34.7956	-0.00242738	0.644694	332.592
454.0000	-34.2824	-0.00241389	0.63368	331.662
453.5000	-34.0719	-0.00235383	0.622373	330.741
453.0000	-33.776	-0.00230803	0.61198	329.823
452.5000	-33.4546	-0.00228131	0.602291	328.883
452.0000	-32.9172	-0.00223978	0.592411	327.914
451.5000	-32.4319	-0.00218202	0.582112	326.907
451.0000	-31.9884	-0.00213562	0.571899	325.927
450.5000	-31.8248	-0.00209531	0.56135	324.938
450.0000	-31.4277	-0.00205277	0.552038	324.146
449.5000	-30.6136	-0.0020091	0.541985	323.512
449.0000	-30.193	-0.00195964	0.531587	322.909
448.5000	-29.4321	-0.00190569	0.520985	322.137
448.0000	-28.7898	-0.0018569	0.512264	321.441
447.5000	-28.2261	-0.00182285	0.504043	321.042
447.0000	-27.5703	-0.00178266	0.494963	320.769
446.5000	-27.2031	-0.00172002	0.485657	320.302
446.0000	-26.8598	-0.00168587	0.476644	319.487
445.5000	-26.1904	-0.00165427	0.467625	318.555
445.0000	-25.5789	-0.00162489	0.458868	317.555
444.5000	-24.8118	-0.00157616	0.450753	316.522
444.0000	-24.2363	-0.00152635	0.443085	315.5
443.5000	-23.7179	-0.00150014	0.434571	314.446
443.0000	-23.2712	-0.00145396	0.426689	313.558
442.5000	-22.7375	-0.00142808	0.419351	312.713
442.0000	-22.2902	-0.00138178	0.412705	311.988
441.5000	-21.8909	-0.00136281	0.40564	311.215
441.0000	-21.5576	-0.00131676	0.400048	310.511
440.5000	-21.0782	-0.00129383	0.394969	309.806
440.0000	-20.4061	-0.0012496	0.388899	309.077
439.5000	-19.9407	-0.00120552	0.381236	308.328
439.0000	-19.4883	-0.00118111	0.372996	307.538
438.5000	-18.8829	-0.00114081	0.364101	306.716
438.0000	-18.5961	-0.00111027	0.356083	305.915
437.5000	-18.1691	-0.00106958	0.348304	305.161
437.0000	-17.6937	-0.00103427	0.341069	304.419
436.5000	-17.1869	-0.00101539	0.33483	303.804
436.0000	-17.1084	-0.0010012	0.328698	303.263
435.5000	-16.6566	-0.000974948	0.321653	302.724
435.0000	-16.2461	-0.000943592	0.315419	302.16
434.5000	-15.9667	-0.000887976	0.309106	301.563
434.0000	-15.6771	-0.000850182	0.30267	300.941
433.5000	-15.2757	-0.00081279	0.296548	300.345
433.0000	-14.9716	-0.000769853	0.290183	299.703
432.5000	-14.636	-0.000730132	0.283836	299.093
432.0000	-14.3741	-0.000719962	0.277699	298.454
431.5000	-14.1377	-0.000712097	0.271968	297.816
431.0000	-13.6692	-0.000657298	0.266346	297.198
430.5000	-13.4842	-0.000636608	0.261345	296.592
430.0000	-13.194	-0.000636399	0.256105	296.013
429.5000	-12.7724	-0.000618777	0.250534	295.405
429.0000	-12.2895	-0.000583725	0.245177	294.797
428.5000	-12.0788	-0.000551147	0.240035	294.186
428.0000	-11.8701	-0.000518306	0.234415	293.563
427.5000	-11.3389	-0.00048468	0.229909	293.024
427.0000	-11.0835	-0.000468288	0.225111	292.471
426.5000	-10.845	-0.000454226	0.220013	291.905
426.0000	-10.3193	-0.000432624	0.214264	291.297
425.5000	-9.97593	-0.000426549	0.20946	290.652
425.0000	-9.78707	-0.000420698	0.204154	289.975
424.5000	-9.41689	-0.000410891	0.200136	289.318
424.0000	-9.16686	-0.000387426	0.195977	288.721
423.5000	-8.89514	-0.000369494	0.191962	288.212
423.0000	-8.55902	-0.00033861	0.187948	287.739
422.5000	-8.27785	-0.00033742	0.183371	287.289
422.0000	-7.99374	-0.000311947	0.179358	286.853
421.5000	-7.80595	-0.000285677	0.174131	286.431
421.0000	-7.46696	-0.000279851	0.170276	286.047
420.5000	-7.28637	-0.000263011	0.166827	285.65
420.0000	-7.03292	-0.000250613	0.162208	285.249
419.5000	-6.79706	-0.000253427	0.158289	284.818
419.0000	-6.57817	-0.000213706	0.154367	284.404
418.5000	-6.38354	-0.000205255	0.150512	284.046
418.0000	-6.29971	-0.000177422	0.147976	283.725
417.5000	-6.19397	-0.000161106	0.145917	283.416
417.0000	-5.89398	-0.000145878	0.143836	283.155
416.5000	-5.65424	-0.000138292	0.141297	282.962
416.0000	-5.56518	-0.000144033	0.138356	282.761
415.5000	-5.39985	-0.000124227	0.135145	282.495
415.0000	-5.36755	-0.000125831	0.132304	282.207
414.5000	-5.20076	-0.000113959	0.130205	281.893
414.0000	-5.20615	-0.000103197	0.127991	281.602
413.5000	-4.8752	-9.11582E-005	0.125923	281.285
413.0000	-4.85278	-7.55253E-005	0.125127	281.014
412.5000	-4.7439	-7.43833E-005	0.123127	280.771
412.0000	-4.40666	-5.1338E-005	0.12117	280.561
411.5000	-4.28048	-3.7972E-005	0.119256	280.347
411.0000	-4.23529	-3.10534E-005	0.11708	280.16
410.5000	-4.2307	-2.84068E-005	0.115725	279.985
410.0000	-4.20798	-1.07162E-005	0.114261	279.835
409.5000	-4.14859	-1.84788E-005	0.111831	279.694
409.0000	-4.10529	-2.05402E-005	0.109174	279.579
408.5000	-4.09019	3.52433E-006	0.106032	279.459
408.0000	-4.10616	1.34023E-005	0.104398	279.324
407.5000	-3.90915	2.47131E-005	0.102296	279.173
407.0000	-3.95155	1.50521E-005	0.10062	279.026
406.5000	-3.84632	3.46332E-005	0.0993522	278.881
406.0000	-3.77218	3.35628E-005	0.0976886	278.723
405.5000	-3.58704	3.53715E-005	0.0966061	278.542
405.0000	-3.60035	5.89341E-005	0.0960764	278.357
404.5000	-3.38545	5.97977E-005	0.0950004	278.147
404.0000	-3.24716	6.67844E-005	0.0924595	277.905
403.5000	-3.32333	8.05774E-005	0.090874	277.639
403.0000	-3.25235	9.14135E-005	0.0900297	277.362
402.5000	-3.12271	0.000103223	0.0887042	277.076
402.0000	-3.09856	0.000102987	0.0880239	276.81
401.5000	-2.9003	0.000110898	0.0883386	276.535
401.0000	-2.7201	0.000121456	0.0890184	276.287
400.5000	-2.40369	0.000126817	0.0906244	276.074
400.0000	-2.37779	0.00013586	0.0905508	275.898
399.5000	-2.3453	0.000141355	0.0897317	275.733
399.0000	-2.2298	0.000147934	0.08912	275.6
398.5000	-2.11196	0.000154817	0.0894297	275.476
398.0000	-2.20782	0.000142619	0.0891569	275.376
397.5000	-2.02044	0.000153352	0.0882496	275.327
397.0000	-1.85405	0.00016451	0.0871525	275.302
396.5000	-1.85768	0.000157646	0.0865499	275.305
396.0000	-1.77723	0.000168145	0.0871275	275.341
395.5000	-1.75656	0.000168884	0.0879918	275.403
395.0000	-1.52964	0.000181443	0.0879368	275.503
394.5000	-1.49382	0.000193169	0.0878922	275.633
394.0000	-1.54086	0.000189306	0.0882795	275.789
393.5000	-1.42384	0.000191306	0.0881422	275.947
393.0000	-1.46086	0.000184866	0.0873282	276.124
392.5000	-1.45339	0.000189659	0.0866157	276.279
392.0000	-1.50134	0.000189029	0.0861644	276.399
391.5000	-1.28456	0.000187044	0.0857834	276.504
391.0000	-1.14376	0.000203774	0.0859508	276.606
390.5000	-0.811142	0.000215367	0.0855667	276.708
390.0000	-0.637068	0.000221414	0.0855148	276.799
389.5000	-0.625455	0.000232141	0.0858712	276.877
389.0000	-0.671706	0.000240117	0.0871928	276.942
388.5000	-0.782667	0.000238865	0.0879753	277.003
388.0000	-0.634531	0.000267018	0.0881929	277.07
387.5000	-0.672955	0.000254259	0.0890117	277.142
387.0000	-0.751517	0.000248475	0.0899496	277.201
386.5000	-0.777379	0.000243461	0.0912425	277.258
386.0000	-0.631854	0.000240985	0.0922525	277.305
385.5000	-0.625441	0.000243649	0.0927483	277.336
385.0000	-0.486225	0.000249716	0.0938933	277.377
384.5000	-0.31711	0.000250243	0.0952388	277.411
384.0000	-0.238448	0.000252072	0.0965979	277.458
383.5000	-0.0252598	0.000261136	0.098107	277.508
383.0000	-0.0751368	0.00026889	0.0997898	277.566
382.5000	-0.188473	0.000281262	0.101697	277.611
382.0000	-0.247329	0.000296663	0.103044	277.671
381.5000	-0.311747	0.000305619	0.103974	277.721
381.0000	-0.181983	0.000300172	0.105404	277.796
380.5000	-0.182503	0.000310479	0.106607	277.871
380.0000	-0.187343	0.000310725	0.1078	277.94
379.5000	-0.233357	0.000305603	0.108783	278.013
379.0000	-0.164579	0.000319163	0.109158	278.086
378.5000	0.107693	0.000332258	0.109518	278.146
378.0000	0.0136021	0.000316537	0.110094	278.218
377.5000	-0.018262	0.000325458	0.111143	278.299
377.0000	-0.0660037	0.000333531	0.112175	278.36
376.5000	-0.241916	0.000346476	0.112638	278.406
376.0000	-0.243939	0.000364047	0.113221	278.445
375.5000	-0.331325	0.000351492	0.113428	278.462
375.0000	-0.40277	0.000348653	0.113802	278.488
374.5000	-0.266939	0.000324309	0.114043	278.505
374.0000	-0.278974	0.000307532	0.114605	278.524
373.5000	-0.303682	0.000305527	0.114945	278.536
373.0000	-0.311879	0.000323386	0.115443	278.556
372.5000	-0.267994	0.000321643	0.115547	278.566
372.0000	-0.335975	0.000308656	0.115494	278.577
371.5000	-0.229735	0.000315839	0.115686	278.583
371.0000	-0.159223	0.000312426	0.116004	278.599
370.5000	-0.185844	0.000305329	0.116578	278.634
370.0000	-0.352151	0.0002989	0.117534	278.685
369.5000	-0.265483	0.000311435	0.117808	278.723
369.0000	-0.346999	0.000307307	0.1169	278.765
368.5000	-0.325903	0.000304645	0.116779	278.825
368.0000	-0.336487	0.000286754	0.117101	278.894
367.5000	-0.411621	0.000288172	0.116646	278.964
367.0000	-0.249764	0.000279126	0.117256	279.057
366.5000	-0.464267	0.000286607	0.11769	279.136
366.0000	-0.429756	0.000276365	0.118752	279.244
365.5000	-0.29722	0.000290123	0.118435	279.337
365.0000	-0.228458	0.000274216	0.118852	279.433
364.5000	-0.145989	0.000276609	0.119398	279.527
364.0000	-0.126707	0.000264558	0.119985	279.629
363.5000	-0.224539	0.00025763	0.120855	279.744
363.0000	-0.26742	0.000255568	0.121773	279.864
362.5000	-0.159295	0.000258898	0.122936	279.969
362.0000	-0.0604678	0.00026619	0.1238	280.066
361.5000	0.0390919	0.000248048	0.12412	280.172
361.0000	0.397344	0.00024799	0.126034	280.271
360.5000	0.609103	0.000252455	0.127761	280.38
360.0000	0.734751	0.000260306	0.128741	280.492
359.5000	0.702241	0.000265076	0.130024	280.589
359.0000	0.669848	0.000262775	0.131015	280.685
358.5000	0.837329	0.000281196	0.131965	280.775
358.0000	1.03524	0.000293388	0.132778	280.872
357.5000	1.08044	0.000310054	0.133587	280.976
357.0000	1.03947	0.0002994	0.1351	281.077
356.5000	0.962948	0.000303262	0.135581	281.159
356.0000	0.957816	0.00029264	0.135747	281.249
355.5000	1.11516	0.000283681	0.136255	281.334
355.0000	1.15633	0.000271059	0.136998	281.417
354.5000	1.15054	0.000266413	0.137511	281.505
354.0000	1.0124	0.000272017	0.13754	281.598
353.5000	1.12985	0.000277736	0.138177	281.681
353.0000	1.03888	0.00029399	0.139123	281.774
352.5000	0.855316	0.000280609	0.139422	281.87
352.0000	0.913604	0.000269654	0.140591	281.958
351.5000	0.855125	0.000267008	0.141331	282.046
351.0000	1.12585	0.000261328	0.141796	282.141
350.5000	1.13206	0.000255152	0.142288	282.227
350.0000	1.0412	0.00024953	0.142767	282.322
349.5000	1.00402	0.000238275	0.143325	282.414
349.0000	0.93252	0.000204188	0.143904	282.507
348.5000	0.997999	0.000214716	0.144222	282.6
348.0000	1.07729	0.000201234	0.145431	282.699
347.5000	1.065	0.00020085	0.146825	282.786
347.0000	0.720442	0.000205967	0.148087	282.881
346.5000	0.933409	0.000220975	0.14855	282.966
346.0000	0.980864	0.000205598	0.149086	283.05
345.5000	0.9581	0.000192915	0.150052	283.138
345.0000	0.942879	0.000178913	0.150323	283.231
344.5000	1.04663	0.00015548	0.150914	283.312
344.0000	1.1812	0.000161441	0.151704	283.397
343.5000	1.03543	0.000148185	0.152132	283.49
343.0000	1.04418	0.000139574	0.153313	283.581
342.5000	1.03461	0.000125231	0.153858	283.673
342.0000	0.956329	0.00011751	0.154752	283.775
341.5000	0.906367	8.86097E-005	0.15597	283.874
341.0000	0.85102	7.91364E-005	0.156773	283.964
340.5000	0.918819	8.84191E-005	0.157874	284.059
340.0000	0.848074	8.08132E-005	0.159278	284.167
339.5000	1.08255	7.68065E-005	0.159663	284.264
339.0000	1.07594	6.4345E-005	0.160409	284.365
338.5000	1.28622	4.76189E-005	0.160676	284.47
338.0000	1.09758	2.44359E-005	0.161528	284.58
337.5000	1.09269	2.66144E-005	0.162465	284.683
337.0000	1.37213	1.732E-005	0.163567	284.797
336.5000	1.47502	1.65884E-005	0.164388	284.913
336.0000	1.36	-3.98887E-006	0.165338	285.037
335.5000	1.30292	-2.61489E-005	0.166086	285.156
335.0000	1.32881	-3.17552E-005	0.166437	285.271
334.5000	1.45408	-4.60855E-005	0.166965	285.402
334.0000	1.56378	-6.04612E-005	0.167879	285.53
333.5000	1.64346	-7.38863E-005	0.169043	285.686
333.0000	1.5722	-7.21238E-005	0.169872	285.825
332.5000	1.56413	-8.82041E-005	0.170476	285.96
332.0000	1.43269	-9.79601E-005	0.171175	286.084
331.5000	1.5381	-0.00013067	0.172504	286.225
331.0000	1.65136	-0.000143836	0.173981	286.398
330.5000	1.86988	-0.00015705	0.175195	286.539
330.0000	1.74139	-0.000186597	0.17683	286.697
329.5000	2.068	-0.000208421	0.178492	286.855
329.0000	1.90933	-0.000249731	0.180122	287.027
328.5000	1.8314	-0.000269046	0.181878	287.186
328.0000	1.81921	-0.000306562	0.183156	287.328
327.5000	1.94847	-0.000324902	0.184374	287.466
327.0000	1.96849	-0.000335048	0.186108	287.6
326.5000	2.20233	-0.000354493	0.188166	287.77
326.0000	2.14524	-0.000370046	0.190407	287.95
325.5000	2.10739	-0.000395748	0.192003	288.123
325.0000	2.3663	-0.000415438	0.193437	288.298
324.5000	2.57359	-0.000434732	0.195176	288.499
324.0000	2.83262	-0.000453666	0.197408	288.723
323.5000	3.04848	-0.000469527	0.199608	288.936
323.0000	3.04602	-0.000509821	0.20165	289.152
322.5000	3.12045	-0.000549251	0.202845	289.362
322.0000	3.21436	-0.000571246	0.204764	289.585
321.5000	3.43121	-0.000579503	0.206822	289.817
321.0000	3.58705	-0.000595968	0.208736	290.048
320.5000	3.8124	-0.000606902	0.210526	290.284
320.0000	3.90838	-0.000632995	0.212394	290.502
319.5000	3.89547	-0.000656789	0.214498	290.731
319.0000	4.10972	-0.000667775	0.216551	290.991
318.5000	4.11751	-0.000706525	0.218666	291.255
318.0000	4.17095	-0.000730632	0.220662	291.491
317.5000	4.21116	-0.000754302	0.222553	291.697
317.0000	4.16821	-0.000771105	0.22503	291.93
316.5000	4.08085	-0.00079906	0.227215	292.133
316.0000	4.1565	-0.000829429	0.229687	292.359
315.5000	4.19389	-0.000863178	0.231693	292.589
315.0000	4.25199	-0.000885238	0.233916	292.846
314.5000	4.1078	-0.000877119	0.236561	293.089
314.0000	3.76793	-0.000879275	0.239265	293.342
313.5000	3.79754	-0.00090713	0.241487	293.598
313.0000	3.66969	-0.000924728	0.243334	293.867
312.5000	3.27524	-0.000952297	0.245166	294.139
312.0000	3.34939	-0.00093463	0.24783	294.413
311.5000	3.33512	-0.000944021	0.250055	294.701
311.0000	3.39942	-0.000945023	0.25288	295.007
310.5000	3.37927	-0.00096763	0.255663	295.327
310.0000	3.30214	-0.000981641	0.258113	295.639
309.5000	3.33576	-0.00100348	0.260847	295.973
309.0000	3.37029	-0.0010145	0.263795	296.344
308.5000	3.42489	-0.00103213	0.266833	296.732
308.0000	3.46984	-0.00105545	0.269932	297.116
307.5000	3.21549	-0.00108207	0.273537	297.542
307.0000	3.32234	-0.00107854	0.277008	297.965
306.5000	2.991	-0.00111925	0.281091	298.436
306.0000	3.08355	-0.0011344	0.285263	298.906
305.5000	3.37107	-0.00116628	0.289856	299.43
305.0000	3.0903	-0.00120837	0.294711	299.966
304.5000	3.21887	-0.00123966	0.300785	300.574
304.0000	3.25491	-0.00128188	0.307438	301.216
303.5000	3.09052	-0.00133741	0.31351	301.865
303.0000	3.09587	-0.00138657	0.321231	302.589
302.5000	3.00038	-0.00141572	0.328608	303.367
302.0000	3.00073	-0.00146711	0.336235	304.182
301.5000	3.00453	-0.0015082	0.344747	305.025
301.0000	3.072	-0.0015427	0.353595	305.903
300.5000	2.80321	-0.00159138	0.361775	306.72
300.0000	2.87052	-0.00163712	0.371174	307.693

##### Extended Information
[Comments]
Sample name	Pure S
Comment
User
Division
Company	Labo systeme complexes hors equilibre

[Detailed Information]
Creation date	11/20/2025 11:27 AM

Data array type	Linear data array * 4
Horizontal axis	Wavelength [nm]
Vertical axis(1)	CD [mdeg]
Vertical axis(2)	LD [dOD]
Vertical axis(3)	Abs
Vertical axis(4)	HT [V]
Start	700 nm
End	300 nm
Data interval	0.5 nm
Data points	801     

[Measurement Information]
Instrument name	CD Jasco
Model name	J-1500
Serial No.	A005261638

Detector	PM-539
Detector S/N	A0052PM539
  Lock-in amp.	X mode
  HT volt	Auto

Detector	EXPML-535
Detector S/N	A0001
  Lock-in amp.	X mode
  HT volt	Auto

Accessory	PTC-517
Accessory S/N	A001361646
  Temperature	19.98 C
  Control sonsor	Holder
  Monitor sensor	Holder
  Start Mode	Keep target temperature +/-0.10 deg C while 5 seconds

Measurement date	11/20/2025 11:26 AM

Overload detect	1
Photometric mode	CD, LD, Abs, HT
Measure range	700 - 300 nm
Data pitch	0.5 nm
CD scale	200 mdeg/1.0 dOD
FL scale	200 mdeg/1.0 dOD
D.I.T.	1 sec
Bandwidth	1.00 nm
Start mode	Immediately
Scanning speed	500 nm/min
Baseline correction	Baseline
Shutter control	Auto


