TITLE	S-JS after DT 72 hrs
DATA TYPE	
ORIGIN	JASCO
OWNER	
DATE	25/07/14
TIME	14:45:59
SPECTROMETER/DATA SYSTEM	
LOCALE	1033
RESOLUTION	
DELTAX	-0.5
XUNITS	NANOMETERS
YUNITS	CD [mdeg]
Y2UNITS	LD [dOD]
Y3UNITS	ABSORBANCE
Y4UNITS	HT [V]
FIRSTX	  700.0000
LASTX	  200.0000
NPOINTS	    1001
FIRSTY	    -0.82471
MAXY	    39.86628
MINY	   -42.89477
XYDATA
700.0000	-0.824708	-0.00134106	-0.124637	305.935
699.5000	-0.880338	-0.00134188	-0.124015	305.461
699.0000	-0.87311	-0.00135151	-0.122163	304.892
698.5000	-0.625652	-0.00135739	-0.119834	304.261
698.0000	-0.410465	-0.00137936	-0.117871	303.62
697.5000	-0.393353	-0.00138381	-0.116723	303.015
697.0000	-0.621618	-0.00138862	-0.11395	302.395
696.5000	-0.587824	-0.00136638	-0.110021	301.844
696.0000	-0.392216	-0.00136262	-0.106135	301.316
695.5000	-0.337575	-0.00134008	-0.102467	300.887
695.0000	-0.256479	-0.0013512	-0.0995713	300.55
694.5000	-0.00525206	-0.00135291	-0.0975156	300.273
694.0000	0.138536	-0.00134458	-0.0954127	300.03
693.5000	-0.21262	-0.00134924	-0.0947834	299.814
693.0000	-0.237208	-0.00135173	-0.093146	299.63
692.5000	-0.340652	-0.00138217	-0.0910472	299.471
692.0000	-0.32689	-0.0014037	-0.089858	299.348
691.5000	-0.277611	-0.00139633	-0.0885321	299.293
691.0000	-0.232926	-0.00140145	-0.0876876	299.321
690.5000	-0.43261	-0.00140261	-0.087684	299.468
690.0000	-0.690465	-0.00138609	-0.0874644	299.712
689.5000	-0.567344	-0.00141295	-0.0879068	300.029
689.0000	-0.745602	-0.00141256	-0.0892117	300.391
688.5000	-0.756388	-0.00139989	-0.0922916	300.756
688.0000	-0.749747	-0.00141143	-0.0940792	301.106
687.5000	-0.63999	-0.0014142	-0.0972622	301.42
687.0000	-0.747852	-0.00142773	-0.10022	301.689
686.5000	-0.788452	-0.00141528	-0.102577	301.944
686.0000	-1.13693	-0.00143844	-0.103632	302.17
685.5000	-1.12078	-0.00144242	-0.10349	302.418
685.0000	-1.18373	-0.00143357	-0.103854	302.68
684.5000	-1.03262	-0.00143402	-0.104281	302.942
684.0000	-0.952479	-0.00141311	-0.104149	303.225
683.5000	-1.24578	-0.0014062	-0.104855	303.514
683.0000	-1.27173	-0.00138681	-0.105621	303.806
682.5000	-1.2387	-0.00139366	-0.106439	304.024
682.0000	-1.16992	-0.00139857	-0.10733	304.165
681.5000	-1.22647	-0.00139332	-0.108087	304.228
681.0000	-1.32176	-0.00139977	-0.108256	304.235
680.5000	-1.15866	-0.00142516	-0.107853	304.221
680.0000	-1.402	-0.00142191	-0.107494	304.193
679.5000	-1.41351	-0.00141557	-0.108043	304.162
679.0000	-1.36901	-0.00141	-0.105657	304.134
678.5000	-1.29672	-0.0014315	-0.104564	304.122
678.0000	-1.11892	-0.0014257	-0.103605	304.107
677.5000	-0.933049	-0.00140489	-0.102801	304.113
677.0000	-0.880776	-0.00142272	-0.101927	304.115
676.5000	-0.778791	-0.00141716	-0.100841	304.122
676.0000	-0.895445	-0.00141448	-0.101847	304.146
675.5000	-0.589849	-0.00141326	-0.101593	304.167
675.0000	-0.491509	-0.00142175	-0.100856	304.209
674.5000	-0.577147	-0.00142636	-0.100513	304.265
674.0000	-0.37367	-0.00141895	-0.100511	304.341
673.5000	-0.543941	-0.00142215	-0.0998969	304.399
673.0000	-0.396586	-0.00142277	-0.0993735	304.471
672.5000	-0.375712	-0.00141501	-0.0999285	304.542
672.0000	-0.175737	-0.00139618	-0.0998845	304.63
671.5000	-0.201707	-0.00138132	-0.0998159	304.714
671.0000	-0.316514	-0.00140026	-0.0990703	304.799
670.5000	-0.244429	-0.00139071	-0.0984729	304.885
670.0000	-0.207041	-0.0013969	-0.0990196	304.973
669.5000	-0.169493	-0.00140263	-0.099561	305.068
669.0000	-0.526269	-0.00140881	-0.100488	305.174
668.5000	-0.424429	-0.00140857	-0.101396	305.286
668.0000	-0.700415	-0.00141362	-0.101646	305.413
667.5000	-0.471961	-0.00142193	-0.1013	305.55
667.0000	-0.271845	-0.00139916	-0.100199	305.683
666.5000	-0.383885	-0.00141605	-0.101388	305.798
666.0000	-0.266646	-0.00139035	-0.102256	305.905
665.5000	-0.310521	-0.00140558	-0.103096	306.003
665.0000	-0.202283	-0.00140201	-0.10348	306.076
664.5000	0.0133492	-0.00140081	-0.102911	306.147
664.0000	-0.0377915	-0.00141705	-0.103114	306.195
663.5000	0.149854	-0.00143594	-0.103355	306.227
663.0000	0.225356	-0.00142933	-0.103441	306.252
662.5000	0.175828	-0.00144478	-0.103099	306.265
662.0000	0.1764	-0.0014292	-0.101903	306.265
661.5000	0.405936	-0.00141896	-0.100359	306.244
661.0000	0.458258	-0.00140705	-0.0997866	306.206
660.5000	0.557042	-0.00140948	-0.0988755	306.132
660.0000	0.663923	-0.00140885	-0.0993838	306.044
659.5000	0.367703	-0.00139273	-0.0995393	305.914
659.0000	0.0902217	-0.00141952	-0.100356	305.75
658.5000	0.184703	-0.00143243	-0.0989096	305.55
658.0000	0.0470895	-0.00143995	-0.0983499	305.341
657.5000	0.0910049	-0.00143726	-0.0983827	305.106
657.0000	0.129711	-0.00144557	-0.0984834	304.895
656.5000	0.150344	-0.00140925	-0.0984388	304.667
656.0000	0.140971	-0.0013964	-0.0964836	304.461
655.5000	0.182021	-0.00138566	-0.0945018	304.271
655.0000	0.234734	-0.00139307	-0.0928994	304.103
654.5000	-0.0857728	-0.00137868	-0.0922545	303.967
654.0000	-0.037868	-0.00140183	-0.0917206	303.855
653.5000	-0.137272	-0.00141654	-0.0916259	303.77
653.0000	-0.277854	-0.00144245	-0.0911978	303.724
652.5000	-0.104786	-0.00142945	-0.0911128	303.7
652.0000	0.177112	-0.00141028	-0.0898848	303.711
651.5000	0.368574	-0.00143028	-0.0878818	303.756
651.0000	0.239375	-0.00145768	-0.0873706	303.847
650.5000	0.336025	-0.00144264	-0.0867127	303.969
650.0000	0.30118	-0.00143495	-0.08689	304.116
649.5000	0.151782	-0.00143847	-0.0855971	304.289
649.0000	0.065466	-0.00143947	-0.0844714	304.443
648.5000	-0.0750435	-0.0014443	-0.084516	304.63
648.0000	-0.198092	-0.00145599	-0.0848532	304.803
647.5000	-0.443552	-0.00146634	-0.0857566	304.952
647.0000	-0.424208	-0.00146876	-0.087278	305.091
646.5000	-0.414724	-0.00146433	-0.0876577	305.2
646.0000	-0.516902	-0.00144399	-0.0882179	305.267
645.5000	-0.570402	-0.00142774	-0.0884131	305.314
645.0000	-0.313063	-0.00142013	-0.0882928	305.32
644.5000	-0.353832	-0.00143103	-0.0888242	305.309
644.0000	-0.658659	-0.0014375	-0.0888247	305.28
643.5000	-1.21165	-0.00143815	-0.0888771	305.231
643.0000	-1.32909	-0.00144788	-0.0885954	305.159
642.5000	-1.40012	-0.0014105	-0.088151	305.087
642.0000	-1.28913	-0.00141181	-0.0872896	304.999
641.5000	-0.926594	-0.00139594	-0.0858551	304.903
641.0000	-0.942191	-0.00137445	-0.0862418	304.797
640.5000	-0.995801	-0.00137936	-0.0855946	304.705
640.0000	-0.965956	-0.00137484	-0.0839837	304.607
639.5000	-0.59509	-0.00137819	-0.0832853	304.507
639.0000	-1.01579	-0.00135477	-0.08169	304.405
638.5000	-0.897055	-0.0013535	-0.0803031	304.295
638.0000	-0.600467	-0.00134183	-0.0788271	304.198
637.5000	-0.883687	-0.00134279	-0.0779151	304.109
637.0000	-1.12084	-0.00133885	-0.0779003	304.04
636.5000	-1.22848	-0.00134038	-0.0773867	303.996
636.0000	-1.22863	-0.00135411	-0.0757892	303.952
635.5000	-1.17985	-0.00134022	-0.0747708	303.913
635.0000	-0.862909	-0.00133562	-0.0748519	303.894
634.5000	-0.660178	-0.00133707	-0.0738829	303.864
634.0000	-0.75561	-0.00134135	-0.0733599	303.84
633.5000	-0.8664	-0.00133804	-0.072208	303.824
633.0000	-1.09911	-0.00132981	-0.070999	303.804
632.5000	-1.18659	-0.00134994	-0.0690517	303.784
632.0000	-1.05431	-0.00133678	-0.069486	303.754
631.5000	-1.18679	-0.00135401	-0.0695306	303.725
631.0000	-1.0729	-0.00136199	-0.0697135	303.69
630.5000	-1.1078	-0.00136618	-0.0685048	303.67
630.0000	-1.15194	-0.00138528	-0.0666337	303.651
629.5000	-1.35991	-0.00139982	-0.0657988	303.625
629.0000	-1.21062	-0.00137071	-0.0642891	303.592
628.5000	-1.04962	-0.00139706	-0.0625791	303.55
628.0000	-1.12868	-0.0014019	-0.0608096	303.515
627.5000	-1.17735	-0.00138573	-0.0600518	303.481
627.0000	-1.16045	-0.00140018	-0.0586395	303.461
626.5000	-1.13306	-0.00137078	-0.0563091	303.443
626.0000	-1.57708	-0.0013861	-0.054461	303.448
625.5000	-1.77264	-0.00138843	-0.0525757	303.474
625.0000	-1.61721	-0.00139567	-0.0519626	303.513
624.5000	-1.55448	-0.00139281	-0.0507135	303.583
624.0000	-1.56624	-0.00138379	-0.0479164	303.657
623.5000	-1.79454	-0.00138093	-0.045514	303.744
623.0000	-1.84005	-0.00139144	-0.0431087	303.846
622.5000	-1.89734	-0.00137602	-0.0420065	303.957
622.0000	-1.81323	-0.00137767	-0.0412117	304.073
621.5000	-1.65687	-0.00135915	-0.0399341	304.202
621.0000	-1.62028	-0.00135416	-0.0380328	304.342
620.5000	-1.40588	-0.00136754	-0.0371535	304.486
620.0000	-1.43269	-0.00135893	-0.0371541	304.654
619.5000	-1.3685	-0.00133021	-0.0366675	304.857
619.0000	-1.20757	-0.00134738	-0.0350804	305.088
618.5000	-1.08555	-0.00135043	-0.0350445	305.316
618.0000	-1.06736	-0.00135328	-0.0349993	305.531
617.5000	-1.03893	-0.00138302	-0.0348856	305.746
617.0000	-0.94119	-0.00139864	-0.0338232	305.962
616.5000	-1.08156	-0.00138737	-0.0334917	306.162
616.0000	-1.20336	-0.00141334	-0.0324317	306.361
615.5000	-0.941871	-0.00142499	-0.0326393	306.549
615.0000	-0.682876	-0.00144372	-0.0328206	306.744
614.5000	-0.569362	-0.00145286	-0.0319747	306.925
614.0000	-0.578794	-0.00146669	-0.0317104	307.097
613.5000	-0.4236	-0.00148091	-0.0313166	307.287
613.0000	-0.329946	-0.00147952	-0.0303603	307.485
612.5000	-0.479908	-0.00147909	-0.029569	307.668
612.0000	-0.463082	-0.00147695	-0.0274733	307.839
611.5000	-0.569634	-0.00147255	-0.0264945	307.992
611.0000	-0.897392	-0.00147696	-0.025915	308.147
610.5000	-1.15372	-0.00146421	-0.0247503	308.311
610.0000	-1.11739	-0.00147628	-0.0237186	308.443
609.5000	-1.00708	-0.00146018	-0.0221803	308.579
609.0000	-1.08005	-0.00144378	-0.0200534	308.724
608.5000	-1.12652	-0.00147288	-0.0186234	308.853
608.0000	-0.82817	-0.00145657	-0.0179145	308.96
607.5000	-0.701914	-0.001426	-0.0162531	309.072
607.0000	-0.971093	-0.00142475	-0.0142796	309.193
606.5000	-0.665772	-0.00141657	-0.011292	309.327
606.0000	-0.962662	-0.00140869	-0.0102607	309.445
605.5000	-1.19032	-0.00139407	-0.00909214	309.558
605.0000	-1.17815	-0.00138464	-0.00735344	309.673
604.5000	-1.33811	-0.00139375	-0.00651725	309.774
604.0000	-1.6089	-0.00140485	-0.00442127	309.885
603.5000	-1.68667	-0.00140476	-0.001766	309.994
603.0000	-1.51424	-0.00140136	-0.000274062	310.088
602.5000	-1.44972	-0.00140213	0.00228437	310.177
602.0000	-1.64624	-0.00141719	0.00430909	310.269
601.5000	-1.73505	-0.00139025	0.00726582	310.385
601.0000	-1.74553	-0.00139814	0.00978103	310.479
600.5000	-1.7126	-0.00138806	0.0122177	310.568
600.0000	-1.80049	-0.00139937	0.0151688	310.647
599.5000	-1.73587	-0.0014065	0.0184452	310.74
599.0000	-1.91045	-0.00141311	0.0206981	310.828
598.5000	-2.0832	-0.0014017	0.022722	310.89
598.0000	-1.83382	-0.00138266	0.0257239	310.967
597.5000	-1.76991	-0.00137801	0.0297559	311.054
597.0000	-1.68653	-0.00136554	0.0329985	311.124
596.5000	-1.37757	-0.00135375	0.0366799	311.199
596.0000	-1.17311	-0.00135085	0.0399653	311.285
595.5000	-1.2673	-0.0013664	0.0429564	311.376
595.0000	-1.50408	-0.0013493	0.0470287	311.456
594.5000	-1.35128	-0.00134739	0.0502133	311.569
594.0000	-0.945064	-0.00134582	0.0548794	311.685
593.5000	-0.697263	-0.00136457	0.0584993	311.794
593.0000	-0.577125	-0.00135897	0.0612674	311.919
592.5000	-0.342355	-0.00134674	0.0646286	312.077
592.0000	-0.436788	-0.00131779	0.0689498	312.262
591.5000	-0.22085	-0.00129926	0.0717402	312.435
591.0000	0.16796	-0.00127333	0.0742604	312.636
590.5000	0.29936	-0.00125618	0.0790653	312.873
590.0000	0.437138	-0.00126494	0.0832705	313.135
589.5000	0.311306	-0.00125294	0.087627	313.403
589.0000	0.296481	-0.0012598	0.0922061	313.694
588.5000	0.226741	-0.0012645	0.0969732	314.007
588.0000	0.185181	-0.00126265	0.101433	314.365
587.5000	0.312357	-0.0012471	0.10661	314.752
587.0000	0.794254	-0.00124558	0.111716	315.195
586.5000	1.23825	-0.00123702	0.116758	315.605
586.0000	1.07505	-0.0012214	0.122184	316.046
585.5000	1.26384	-0.00120094	0.127041	316.511
585.0000	1.63227	-0.00116717	0.133147	317.015
584.5000	1.88808	-0.00111982	0.139578	317.522
584.0000	2.3934	-0.00110597	0.145493	318.071
583.5000	2.73381	-0.00110207	0.15193	318.663
583.0000	2.83948	-0.00108849	0.159349	319.304
582.5000	3.26765	-0.00107056	0.168155	319.986
582.0000	3.72081	-0.00103937	0.176053	320.668
581.5000	4.40729	-0.0010168	0.184638	321.423
581.0000	5.11032	-0.00100321	0.192062	322.219
580.5000	5.80509	-0.000989761	0.200062	323.037
580.0000	6.34108	-0.000973388	0.209223	323.873
579.5000	7.36884	-0.000955093	0.219137	324.74
579.0000	7.79081	-0.00092302	0.228805	325.644
578.5000	8.6501	-0.000869655	0.238823	326.581
578.0000	9.68514	-0.000848796	0.250144	327.569
577.5000	10.7398	-0.000805544	0.262483	328.641
577.0000	11.3414	-0.000785581	0.274534	329.705
576.5000	12.4134	-0.000791059	0.285963	330.885
576.0000	13.6229	-0.000755851	0.299224	332.06
575.5000	14.7989	-0.000710069	0.312845	333.324
575.0000	15.8714	-0.000665087	0.324602	334.513
574.5000	17.2236	-0.000620096	0.336698	335.819
574.0000	18.29	-0.000606048	0.348987	337.118
573.5000	19.7395	-0.00057667	0.362814	338.459
573.0000	21.1995	-0.000527474	0.378458	339.89
572.5000	22.354	-0.000459807	0.391653	341.268
572.0000	23.6691	-0.000377461	0.408091	342.832
571.5000	25.2746	-0.000307039	0.423622	344.352
571.0000	26.2008	-0.000263226	0.440494	345.95
570.5000	27.6093	-0.000244925	0.457198	347.585
570.0000	28.7749	-0.000176531	0.473966	349.196
569.5000	30.2874	-0.000140438	0.490052	350.883
569.0000	31.5718	-8.48601E-005	0.506271	352.566
568.5000	32.8095	-2.24972E-005	0.52149	354.163
568.0000	33.9539	4.3981E-005	0.537162	355.782
567.5000	34.9458	8.68008E-005	0.552934	357.416
567.0000	35.8808	0.000109859	0.56985	358.974
566.5000	36.5905	0.000135241	0.586137	360.489
566.0000	36.9831	0.000144469	0.60159	361.956
565.5000	37.7912	0.000209613	0.615452	363.386
565.0000	37.9833	0.000217155	0.628692	364.735
564.5000	38.5341	0.000253753	0.642668	366.046
564.0000	39.2761	0.000247099	0.654799	367.236
563.5000	39.4985	0.000276889	0.665998	368.349
563.0000	39.8663	0.000304872	0.67777	369.473
562.5000	39.7692	0.00028441	0.68838	370.448
562.0000	39.1955	0.000296373	0.697736	371.347
561.5000	38.8537	0.000267324	0.707097	372.249
561.0000	38.1865	0.000268154	0.715878	373.05
560.5000	37.7885	0.000280892	0.723418	373.762
560.0000	37.4659	0.000255566	0.731798	374.398
559.5000	36.8936	0.00019783	0.739127	374.918
559.0000	36.4567	0.000171297	0.744892	375.306
558.5000	35.6918	0.000121571	0.74808	375.592
558.0000	35.0742	9.06665E-005	0.750527	375.784
557.5000	34.5273	7.01574E-005	0.752437	375.884
557.0000	34.1292	4.13912E-005	0.754575	375.91
556.5000	33.546	1.59514E-005	0.755878	375.856
556.0000	32.2905	-4.4144E-005	0.755214	375.714
555.5000	31.3863	-9.68687E-005	0.75506	375.505
555.0000	30.9714	-0.000137851	0.753524	375.215
554.5000	30.1135	-0.000163231	0.750964	374.879
554.0000	29.7401	-0.00018464	0.748074	374.481
553.5000	29.2602	-0.000203338	0.745027	374.046
553.0000	29.1741	-0.000222909	0.742262	373.604
552.5000	28.4226	-0.000237463	0.740354	373.132
552.0000	27.7414	-0.000287783	0.736984	372.596
551.5000	27.3571	-0.00029738	0.733672	372.076
551.0000	26.8064	-0.000305181	0.729008	371.527
550.5000	26.8386	-0.000295268	0.725325	370.958
550.0000	26.7558	-0.000290343	0.722024	370.375
549.5000	26.5484	-0.000272052	0.719106	369.826
549.0000	26.2094	-0.000285502	0.716255	369.3
548.5000	25.9559	-0.00032025	0.712851	368.817
548.0000	26.1606	-0.000329867	0.710319	368.317
547.5000	26.0295	-0.000353401	0.708216	367.893
547.0000	25.7889	-0.000342563	0.706718	367.472
546.5000	26.0456	-0.000334959	0.705189	367.14
546.0000	25.9019	-0.000337543	0.704846	366.87
545.5000	26.2079	-0.000331162	0.703962	366.627
545.0000	26.2934	-0.000329016	0.703979	366.48
544.5000	26.786	-0.00035104	0.703967	366.342
544.0000	27.0191	-0.000317233	0.704256	366.275
543.5000	27.5213	-0.000307534	0.705884	366.259
543.0000	27.9303	-0.000272733	0.706548	366.305
542.5000	28.5318	-0.000249251	0.707673	366.396
542.0000	28.7805	-0.000273031	0.710501	366.542
541.5000	28.8409	-0.000277616	0.712144	366.782
541.0000	29.1877	-0.000271137	0.715667	367.059
540.5000	29.745	-0.000237427	0.719321	367.419
540.0000	30.1678	-0.000218206	0.72472	367.812
539.5000	30.6361	-0.000178643	0.729767	368.26
539.0000	31.491	-0.000151587	0.735717	368.788
538.5000	31.8973	-0.000138511	0.742353	369.367
538.0000	32.5588	-0.000115007	0.748232	369.955
537.5000	33.0064	-0.00014916	0.755292	370.627
537.0000	33.5378	-0.000120037	0.762674	371.344
536.5000	34.281	-9.13877E-005	0.7701	372.078
536.0000	34.7414	-6.67648E-005	0.77937	372.889
535.5000	35.0283	-8.85563E-005	0.787644	373.709
535.0000	35.605	-7.87781E-005	0.79594	374.615
534.5000	35.8039	-8.5746E-005	0.805189	375.496
534.0000	35.9671	-7.88077E-005	0.814846	376.437
533.5000	36.9212	-3.77282E-005	0.825598	377.383
533.0000	37.8275	-4.12004E-006	0.835048	378.285
532.5000	37.8204	-2.67474E-005	0.844365	379.227
532.0000	38.0335	-4.06703E-005	0.854005	380.234
531.5000	38.1001	2.03522E-005	0.863378	381.256
531.0000	38.1499	3.92678E-005	0.873998	382.319
530.5000	37.9335	6.23649E-005	0.883433	383.342
530.0000	37.9221	6.86104E-005	0.893875	384.397
529.5000	37.4924	5.02775E-005	0.903143	385.401
529.0000	37.8003	8.57504E-005	0.911988	386.331
528.5000	37.0066	9.11798E-005	0.921019	387.264
528.0000	36.9152	8.67516E-005	0.930328	388.147
527.5000	36.4136	7.85513E-005	0.938601	389.038
527.0000	36.1752	7.32568E-005	0.947707	389.988
526.5000	36.0884	5.93046E-005	0.957882	390.851
526.0000	35.1727	7.3414E-005	0.967177	391.731
525.5000	34.138	9.48791E-005	0.976203	392.567
525.0000	33.3469	9.03934E-005	0.983729	393.386
524.5000	32.7188	5.31833E-005	0.991082	394.114
524.0000	31.9359	8.77223E-006	0.998495	394.755
523.5000	31.1477	-1.8216E-005	1.00652	395.404
523.0000	30.8735	-5.22073E-005	1.01298	396.004
522.5000	30.4746	-0.000103205	1.01895	396.55
522.0000	29.6439	-0.000161159	1.02582	397.116
521.5000	28.5713	-0.000188378	1.03228	397.64
521.0000	28.106	-0.000173215	1.03904	398.106
520.5000	27.1357	-0.000184342	1.04502	398.545
520.0000	26.3164	-0.000227812	1.05017	398.912
519.5000	25.7111	-0.000268642	1.05522	399.266
519.0000	25.1964	-0.000323024	1.06047	399.603
518.5000	24.075	-0.000358979	1.06374	399.907
518.0000	23.2263	-0.000373135	1.06798	400.241
517.5000	22.2795	-0.000458655	1.07115	400.558
517.0000	21.4033	-0.000524791	1.07449	400.857
516.5000	20.163	-0.000574317	1.07815	401.131
516.0000	19.1995	-0.000547847	1.08147	401.399
515.5000	18.4805	-0.000562363	1.08459	401.642
515.0000	17.443	-0.000594548	1.08618	401.859
514.5000	16.4753	-0.000567046	1.08991	402.095
514.0000	15.7563	-0.000595395	1.09357	402.29
513.5000	14.9724	-0.000627829	1.096	402.502
513.0000	14.389	-0.000674068	1.09835	402.709
512.5000	13.5233	-0.000703284	1.09953	402.937
512.0000	13.2485	-0.000751101	1.10164	403.146
511.5000	12.4351	-0.000736072	1.10361	403.353
511.0000	11.2589	-0.000762291	1.10578	403.536
510.5000	10.6918	-0.000793694	1.1081	403.716
510.0000	10.259	-0.000817094	1.11004	403.862
509.5000	9.54193	-0.000830793	1.11216	403.977
509.0000	8.78828	-0.0008343	1.11543	404.085
508.5000	8.25911	-0.000811043	1.1185	404.203
508.0000	7.68843	-0.000846203	1.12194	404.365
507.5000	7.16703	-0.00085149	1.12499	404.527
507.0000	6.71871	-0.000933335	1.1276	404.677
506.5000	5.90666	-0.000996076	1.12951	404.81
506.0000	5.5214	-0.00100861	1.13026	404.925
505.5000	5.49748	-0.00098164	1.13238	405.034
505.0000	5.00981	-0.00098748	1.13454	405.152
504.5000	3.61518	-0.000991742	1.1379	405.268
504.0000	2.45623	-0.00102855	1.14025	405.343
503.5000	2.24315	-0.00105772	1.14225	405.401
503.0000	1.39507	-0.00105844	1.1433	405.424
502.5000	0.793308	-0.00105876	1.14493	405.434
502.0000	-0.00967007	-0.0010775	1.14748	405.433
501.5000	-0.668644	-0.00113236	1.14913	405.399
501.0000	-1.01009	-0.00114211	1.15043	405.321
500.5000	-1.59966	-0.00120951	1.15046	405.154
500.0000	-2.70064	-0.00127147	1.15009	404.863
499.5000	-3.61	-0.00131084	1.14993	404.417
499.0000	-4.34886	-0.00132299	1.14964	403.781
498.5000	-5.19271	-0.00131726	1.15046	403.025
498.0000	-5.95001	-0.00130659	1.15169	402.197
497.5000	-7.02553	-0.00136481	1.15306	401.366
497.0000	-8.06722	-0.00141151	1.1527	400.762
496.5000	-9.30393	-0.00150017	1.15226	400.359
496.0000	-10.4054	-0.00156256	1.15236	400.069
495.5000	-11.3865	-0.00159231	1.15186	399.795
495.0000	-12.7387	-0.0016294	1.15229	399.525
494.5000	-13.735	-0.00164782	1.15059	399.249
494.0000	-15.0047	-0.00168813	1.14947	398.994
493.5000	-16.3681	-0.00170796	1.1492	398.72
493.0000	-17.4609	-0.00169653	1.1471	398.478
492.5000	-18.1901	-0.00168737	1.14564	398.238
492.0000	-19.2764	-0.00174433	1.14447	397.985
491.5000	-20.1545	-0.00179911	1.14289	397.784
491.0000	-21.021	-0.00182455	1.14175	397.614
490.5000	-22.4574	-0.00186871	1.1393	397.491
490.0000	-23.7348	-0.00193922	1.13526	397.362
489.5000	-24.6989	-0.00199202	1.132	397.13
489.0000	-25.7647	-0.00201451	1.12905	396.598
488.5000	-26.767	-0.00198391	1.1264	395.811
488.0000	-27.6914	-0.00198095	1.12267	394.83
487.5000	-27.9257	-0.00199973	1.11832	393.74
487.0000	-28.8028	-0.00201203	1.1152	392.63
486.5000	-29.8073	-0.00205434	1.11245	391.491
486.0000	-30.8296	-0.00209888	1.10973	390.57
485.5000	-30.5364	-0.00212662	1.10649	389.797
485.0000	-31.214	-0.00212645	1.10302	389.077
484.5000	-31.7042	-0.00217747	1.09856	388.404
484.0000	-32.9025	-0.00221917	1.09385	387.747
483.5000	-33.4812	-0.00220011	1.0892	387.148
483.0000	-34.409	-0.0021708	1.08303	386.559
482.5000	-35.3051	-0.00220931	1.07732	386.047
482.0000	-35.8539	-0.00223198	1.07175	385.559
481.5000	-36.6792	-0.00223372	1.06642	385.077
481.0000	-37.1081	-0.00224366	1.06024	384.614
480.5000	-37.7577	-0.00228881	1.05421	384.119
480.0000	-38.2663	-0.00231305	1.04776	383.403
479.5000	-38.7288	-0.00234079	1.04138	382.3
479.0000	-39.1805	-0.00235694	1.03666	381.004
478.5000	-39.4276	-0.00235547	1.03072	379.983
478.0000	-39.3874	-0.00237252	1.02501	379.175
477.5000	-39.7884	-0.00239084	1.0182	378.412
477.0000	-40.4106	-0.002407	1.0104	377.374
476.5000	-40.7551	-0.00244117	1.00152	375.884
476.0000	-40.7921	-0.00244805	0.993513	374.23
475.5000	-41.0081	-0.00243276	0.986375	372.372
475.0000	-41.4973	-0.00248667	0.97771	370.349
474.5000	-41.8861	-0.00250733	0.969973	368.222
474.0000	-41.8273	-0.00247287	0.962898	365.892
473.5000	-41.4889	-0.00248167	0.956235	363.365
473.0000	-41.6399	-0.00247661	0.951438	361.037
472.5000	-41.8819	-0.00249087	0.944928	359.121
472.0000	-41.5464	-0.00249107	0.938666	357.792
471.5000	-41.6139	-0.00250798	0.930431	356.921
471.0000	-41.3768	-0.00251907	0.923025	356.52
470.5000	-41.4999	-0.00253666	0.914105	356.082
470.0000	-41.7998	-0.00254193	0.905809	355.326
469.5000	-41.6523	-0.00251438	0.897396	354.127
469.0000	-41.9423	-0.00252611	0.889518	352.624
468.5000	-42.077	-0.00253146	0.882766	351.213
468.0000	-42.376	-0.0025433	0.87583	350.062
467.5000	-42.722	-0.00255566	0.868342	349.264
467.0000	-42.8741	-0.00254128	0.861254	348.741
466.5000	-42.8948	-0.00255387	0.854237	348.469
466.0000	-42.6297	-0.00255504	0.844873	348.444
465.5000	-42.5987	-0.00255813	0.834863	348.638
465.0000	-42.4849	-0.00256457	0.823097	348.806
464.5000	-42.2701	-0.00254857	0.810785	348.5
464.0000	-41.9963	-0.00255084	0.799783	347.699
463.5000	-42.1634	-0.0025505	0.78969	346.704
463.0000	-41.9097	-0.00252378	0.780801	345.681
462.5000	-41.7802	-0.00251155	0.772539	344.733
462.0000	-41.0792	-0.00247212	0.76281	343.895
461.5000	-40.5783	-0.00246447	0.752624	343.246
461.0000	-40.2872	-0.0024518	0.740845	342.746
460.5000	-39.4768	-0.00241293	0.728009	342.282
460.0000	-38.8884	-0.00241135	0.715547	341.769
459.5000	-38.2966	-0.00239674	0.70418	341.156
459.0000	-37.6362	-0.00236513	0.692338	340.311
458.5000	-36.9789	-0.00233268	0.681708	339.255
458.0000	-36.5107	-0.00231917	0.672511	337.998
457.5000	-35.8211	-0.002304	0.663301	336.773
457.0000	-35.3035	-0.00226059	0.652627	335.6
456.5000	-34.9099	-0.00224881	0.641713	334.356
456.0000	-34.216	-0.00222383	0.631294	332.91
455.5000	-33.7875	-0.00221899	0.619838	331.377
455.0000	-32.8735	-0.00219411	0.60903	330.203
454.5000	-32.2824	-0.00219198	0.597485	329.27
454.0000	-31.9752	-0.00217943	0.585345	328.32
453.5000	-31.3023	-0.00217502	0.574817	327.366
453.0000	-30.9506	-0.00215974	0.565176	326.444
452.5000	-30.2159	-0.00216413	0.556451	325.516
452.0000	-29.7608	-0.00215364	0.547102	324.545
451.5000	-29.0476	-0.00210638	0.537647	323.532
451.0000	-28.6194	-0.00209248	0.529085	322.565
450.5000	-27.8761	-0.00209129	0.519574	321.655
450.0000	-27.1718	-0.0020821	0.510279	320.97
449.5000	-26.4603	-0.00206682	0.500159	320.372
449.0000	-25.9034	-0.00207087	0.490785	319.676
448.5000	-25.4567	-0.00207092	0.481743	318.9
448.0000	-24.9459	-0.00206378	0.472561	318.367
447.5000	-24.4278	-0.00205849	0.463099	318.073
447.0000	-24.1186	-0.00204662	0.453875	317.698
446.5000	-23.7456	-0.00204131	0.444674	317.035
446.0000	-23.2865	-0.00202262	0.43671	316.154
445.5000	-22.5891	-0.00200916	0.427388	315.215
445.0000	-22.4514	-0.0019914	0.41858	314.207
444.5000	-21.8025	-0.00197824	0.410281	313.152
444.0000	-21.3926	-0.00197386	0.40178	312.135
443.5000	-21.0368	-0.0019703	0.392825	311.107
443.0000	-20.6015	-0.00197399	0.385585	310.24
442.5000	-20.1838	-0.00196115	0.378001	309.436
442.0000	-19.9263	-0.00195655	0.370833	308.731
441.5000	-19.5903	-0.00194878	0.364015	307.969
441.0000	-19.4426	-0.00193798	0.357599	307.252
440.5000	-19.1226	-0.00193342	0.351462	306.558
440.0000	-18.766	-0.00192911	0.344098	305.834
439.5000	-18.3166	-0.00191833	0.33792	305.102
439.0000	-17.9199	-0.00189936	0.330836	304.326
438.5000	-17.472	-0.00188455	0.32224	303.519
438.0000	-16.8695	-0.00186543	0.313668	302.721
437.5000	-16.4166	-0.001862	0.306797	301.985
437.0000	-16.0414	-0.0018631	0.299576	301.25
436.5000	-15.6543	-0.00184276	0.292561	300.657
436.0000	-15.1187	-0.00184291	0.286469	300.147
435.5000	-14.6015	-0.00182144	0.280455	299.615
435.0000	-14.174	-0.00182514	0.273353	299.028
434.5000	-13.676	-0.0018211	0.266449	298.419
434.0000	-13.1684	-0.00179195	0.258962	297.798
433.5000	-12.6378	-0.00176767	0.251854	297.199
433.0000	-12.1535	-0.00177083	0.245415	296.574
432.5000	-11.9064	-0.00176556	0.239154	295.971
432.0000	-11.3263	-0.00176786	0.233431	295.349
431.5000	-11.0511	-0.00175441	0.226547	294.738
431.0000	-10.5815	-0.00171956	0.220717	294.139
430.5000	-10.2403	-0.00171897	0.215249	293.548
430.0000	-9.94909	-0.0017232	0.210575	292.989
429.5000	-9.59052	-0.00169748	0.205048	292.392
429.0000	-9.10656	-0.00167434	0.199217	291.79
428.5000	-8.94014	-0.00166769	0.194005	291.214
428.0000	-8.66222	-0.00165931	0.188292	290.618
427.5000	-8.45385	-0.00164685	0.183196	290.085
427.0000	-8.37778	-0.00165203	0.177485	289.561
426.5000	-8.10818	-0.00164007	0.172881	289.002
426.0000	-7.74776	-0.00163948	0.168176	288.409
425.5000	-7.6441	-0.00165589	0.163628	287.779
425.0000	-7.56238	-0.00165181	0.158965	287.135
424.5000	-7.28391	-0.00163656	0.154614	286.523
424.0000	-7.00908	-0.00163246	0.149858	285.999
423.5000	-6.7999	-0.00160395	0.145897	285.543
423.0000	-6.48687	-0.00160825	0.142796	285.093
422.5000	-6.0433	-0.00162132	0.138597	284.685
422.0000	-5.82598	-0.00159464	0.133214	284.279
421.5000	-5.35762	-0.00159133	0.129098	283.9
421.0000	-5.30738	-0.00161912	0.125656	283.551
420.5000	-5.22246	-0.00162214	0.121923	283.192
420.0000	-5.14022	-0.00162826	0.118177	282.813
419.5000	-4.94415	-0.00163853	0.113809	282.433
419.0000	-4.80786	-0.00163013	0.110839	282.078
418.5000	-4.66108	-0.00163653	0.1083	281.771
418.0000	-4.63389	-0.00164332	0.105544	281.484
417.5000	-4.35459	-0.00164318	0.103922	281.223
417.0000	-4.17225	-0.00165357	0.101238	281.032
416.5000	-3.92687	-0.00165493	0.098149	280.871
416.0000	-3.65651	-0.00163428	0.0952344	280.677
415.5000	-3.47788	-0.00164548	0.0922264	280.422
415.0000	-3.4549	-0.00166867	0.0896566	280.162
414.5000	-3.32825	-0.00167018	0.0874434	279.875
414.0000	-3.16867	-0.00169317	0.0863323	279.604
413.5000	-3.16666	-0.00169706	0.08507	279.345
413.0000	-2.90496	-0.00166599	0.0829154	279.105
412.5000	-2.65592	-0.00165744	0.0815551	278.89
412.0000	-2.46579	-0.00166545	0.080232	278.703
411.5000	-2.2853	-0.00166101	0.0781241	278.498
411.0000	-2.12114	-0.00165348	0.076656	278.32
410.5000	-1.90658	-0.00165031	0.0749276	278.163
410.0000	-1.65024	-0.00164017	0.0737127	278.027
409.5000	-1.64663	-0.00163815	0.072302	277.911
409.0000	-1.43421	-0.0016335	0.0704067	277.802
408.5000	-1.24544	-0.00161193	0.0691993	277.662
408.0000	-1.24144	-0.00162833	0.0676832	277.523
407.5000	-1.12443	-0.00163711	0.065962	277.373
407.0000	-1.14175	-0.00163142	0.0636791	277.217
406.5000	-0.89199	-0.00162759	0.0619079	277.052
406.0000	-0.853799	-0.00161898	0.0606492	276.893
405.5000	-0.857998	-0.00160705	0.0588543	276.711
405.0000	-0.646251	-0.00160252	0.0565985	276.498
404.5000	-0.70745	-0.00162416	0.0558566	276.269
404.0000	-0.582953	-0.00162784	0.0549637	276.028
403.5000	-0.468946	-0.00162854	0.0544927	275.764
403.0000	-0.436985	-0.00161684	0.0543704	275.493
402.5000	-0.247643	-0.00163134	0.0539834	275.215
402.0000	-0.26592	-0.00163267	0.0538632	274.966
401.5000	-0.331912	-0.00163563	0.0534495	274.706
401.0000	-0.252916	-0.00165336	0.0526947	274.483
400.5000	-0.283254	-0.00164805	0.0515693	274.289
400.0000	-0.306906	-0.00166015	0.051839	274.122
399.5000	-0.464521	-0.00166793	0.0518323	273.975
399.0000	-0.369293	-0.00166828	0.0532183	273.867
398.5000	-0.378111	-0.00165715	0.0535213	273.776
398.0000	-0.265762	-0.00167607	0.0527862	273.698
397.5000	-0.138842	-0.00166571	0.0533259	273.656
397.0000	-0.196379	-0.00167353	0.0539958	273.639
396.5000	-0.227019	-0.00166926	0.0542654	273.671
396.0000	0.116578	-0.00165223	0.0543666	273.732
395.5000	0.0342781	-0.00165192	0.053899	273.819
395.0000	0.079113	-0.00165881	0.0535063	273.948
394.5000	-0.00226094	-0.00165563	0.0533565	274.11
394.0000	-0.0616326	-0.00165302	0.0523494	274.267
393.5000	0.101055	-0.00164321	0.05069	274.439
393.0000	0.242298	-0.00163463	0.05046	274.62
392.5000	0.26653	-0.001625	0.0504243	274.785
392.0000	0.125449	-0.0016141	0.0508107	274.92
391.5000	0.28587	-0.00158398	0.0511585	275.042
391.0000	0.477529	-0.00158487	0.0511122	275.143
390.5000	0.497316	-0.00157829	0.0513941	275.244
390.0000	0.579995	-0.0015874	0.0521263	275.353
389.5000	0.722391	-0.00157959	0.0528184	275.445
389.0000	0.708943	-0.00157319	0.0523469	275.531
388.5000	0.527305	-0.00158331	0.0527095	275.609
388.0000	0.433538	-0.00158245	0.0540201	275.681
387.5000	0.406845	-0.00158051	0.0557253	275.748
387.0000	0.503741	-0.00156641	0.0566729	275.812
386.5000	0.41038	-0.0015618	0.0570286	275.857
386.0000	0.529164	-0.00157143	0.057004	275.91
385.5000	0.640799	-0.00157813	0.0592449	275.96
385.0000	0.736471	-0.00157607	0.0616558	276.002
384.5000	0.419954	-0.00156527	0.0633082	276.044
384.0000	0.407355	-0.00157716	0.0649214	276.093
383.5000	0.474235	-0.00158625	0.0655321	276.132
383.0000	0.540482	-0.00159188	0.0666461	276.184
382.5000	0.622865	-0.00160933	0.0668108	276.249
382.0000	0.69879	-0.00160366	0.0681853	276.309
381.5000	0.691608	-0.00159763	0.0690593	276.368
381.0000	0.631649	-0.00160955	0.0701745	276.444
380.5000	0.607582	-0.00162413	0.07194	276.52
380.0000	0.931323	-0.00162343	0.0733783	276.59
379.5000	1.09552	-0.00162957	0.0741213	276.673
379.0000	1.0673	-0.0016308	0.0743608	276.743
378.5000	1.11601	-0.00163626	0.0757552	276.817
378.0000	1.16177	-0.00163789	0.0770647	276.89
377.5000	1.18232	-0.00164795	0.0784898	276.956
377.0000	1.04759	-0.00164555	0.0783591	277.004
376.5000	1.05779	-0.00165238	0.0780707	277.051
376.0000	1.22315	-0.00166657	0.0786813	277.081
375.5000	1.39449	-0.00166402	0.0786276	277.103
375.0000	1.43169	-0.00167254	0.0794674	277.134
374.5000	1.21984	-0.00166836	0.0791749	277.15
374.0000	1.37703	-0.00165368	0.0799015	277.156
373.5000	1.36051	-0.00167174	0.079771	277.169
373.0000	1.24266	-0.0016725	0.0804064	277.181
372.5000	1.18031	-0.00167103	0.0800714	277.199
372.0000	1.13661	-0.00165925	0.0796263	277.21
371.5000	1.07843	-0.00166367	0.0792661	277.221
371.0000	0.933314	-0.00167711	0.0794196	277.238
370.5000	0.949902	-0.00167436	0.0789701	277.269
370.0000	0.991041	-0.00167749	0.079365	277.3
369.5000	0.938067	-0.001677	0.0793987	277.336
369.0000	1.00663	-0.00166989	0.079339	277.379
368.5000	1.26071	-0.00165293	0.0802621	277.441
368.0000	1.11297	-0.00164962	0.0810231	277.518
367.5000	1.16682	-0.00165437	0.0814756	277.597
367.0000	1.10982	-0.00164077	0.0813188	277.676
366.5000	1.13673	-0.00163246	0.0824324	277.774
366.0000	1.29647	-0.0016252	0.0841044	277.883
365.5000	1.17578	-0.00162656	0.0852761	277.979
365.0000	1.0212	-0.0016218	0.0855515	278.069
364.5000	1.38528	-0.00162642	0.086263	278.158
364.0000	1.58155	-0.00161888	0.0880665	278.257
363.5000	1.58316	-0.00163077	0.0898396	278.365
363.0000	1.66391	-0.00162767	0.0904602	278.47
362.5000	1.8585	-0.00162176	0.0922832	278.562
362.0000	1.83802	-0.00161011	0.0933604	278.67
361.5000	2.05127	-0.00161829	0.0944597	278.78
361.0000	2.18234	-0.00161864	0.0953867	278.879
360.5000	2.31128	-0.00163943	0.0962773	278.973
360.0000	2.31119	-0.0016461	0.0975846	279.059
359.5000	2.53631	-0.00162908	0.0989063	279.143
359.0000	2.56276	-0.00163491	0.0997938	279.237
358.5000	2.63835	-0.00163201	0.0999872	279.33
358.0000	2.74088	-0.00163226	0.100703	279.42
357.5000	2.83907	-0.00163179	0.101137	279.51
357.0000	3.11725	-0.00163047	0.101727	279.597
356.5000	3.08399	-0.00162172	0.102131	279.682
356.0000	2.93257	-0.00162029	0.10315	279.763
355.5000	3.0484	-0.0016154	0.102911	279.839
355.0000	3.08916	-0.00160353	0.10331	279.92
354.5000	3.19873	-0.00160021	0.10392	280.005
354.0000	3.10752	-0.00160887	0.103822	280.093
353.5000	3.1128	-0.00161752	0.103527	280.17
353.0000	3.05179	-0.00161804	0.103304	280.252
352.5000	2.95853	-0.00162452	0.103562	280.354
352.0000	2.85925	-0.00161363	0.103895	280.448
351.5000	2.86765	-0.00162118	0.103934	280.543
351.0000	2.89823	-0.00162695	0.103732	280.624
350.5000	2.91167	-0.00161788	0.103335	280.712
350.0000	2.92624	-0.0016343	0.104786	280.799
349.5000	3.01622	-0.00166048	0.105755	280.895
349.0000	2.9636	-0.00166936	0.107076	280.999
348.5000	2.95891	-0.00168378	0.108304	281.101
348.0000	3.15645	-0.00169746	0.108461	281.195
347.5000	3.16727	-0.00169873	0.108336	281.294
347.0000	3.15371	-0.0017147	0.109153	281.389
346.5000	2.92063	-0.00173874	0.109944	281.486
346.0000	3.02449	-0.00174232	0.111089	281.584
345.5000	3.14342	-0.00172825	0.112585	281.691
345.0000	3.05664	-0.00173875	0.113779	281.798
344.5000	3.17468	-0.00174104	0.113973	281.882
344.0000	3.10828	-0.00173229	0.115003	281.977
343.5000	3.14589	-0.00174276	0.11586	282.073
343.0000	3.16309	-0.00174164	0.115833	282.176
342.5000	3.26282	-0.00175922	0.116987	282.302
342.0000	3.2228	-0.00176261	0.118523	282.431
341.5000	3.1095	-0.00175654	0.119832	282.543
341.0000	3.16537	-0.00175925	0.120563	282.639
340.5000	3.25235	-0.00175548	0.121099	282.743
340.0000	3.27677	-0.00175231	0.122725	282.864
339.5000	3.27574	-0.00175866	0.124673	283.004
339.0000	3.30559	-0.00177193	0.126543	283.135
338.5000	3.31754	-0.0017512	0.127724	283.278
338.0000	3.38211	-0.00176346	0.128333	283.418
337.5000	3.32191	-0.00179451	0.129144	283.551
337.0000	3.36407	-0.00179506	0.130202	283.703
336.5000	3.43999	-0.00179413	0.131729	283.86
336.0000	3.18877	-0.0018215	0.133742	284.034
335.5000	3.26791	-0.00183259	0.135064	284.181
335.0000	3.1458	-0.00183555	0.13649	284.332
334.5000	3.12266	-0.0018448	0.138007	284.486
334.0000	3.27801	-0.00184008	0.13893	284.651
333.5000	3.11983	-0.00186006	0.139672	284.83
333.0000	2.8593	-0.00186973	0.139968	285.017
332.5000	2.61242	-0.00186864	0.141498	285.19
332.0000	2.80373	-0.00186711	0.142167	285.356
331.5000	2.60373	-0.00188067	0.142877	285.529
331.0000	2.54366	-0.00189566	0.143319	285.705
330.5000	2.50404	-0.00189126	0.144361	285.874
330.0000	2.77035	-0.00188888	0.144947	286.046
329.5000	2.73747	-0.00189773	0.146134	286.222
329.0000	2.66347	-0.00189725	0.146973	286.4
328.5000	2.56579	-0.00188993	0.148754	286.546
328.0000	2.52299	-0.00191105	0.149959	286.679
327.5000	2.71917	-0.00189522	0.151274	286.82
327.0000	2.70992	-0.00191009	0.152716	286.961
326.5000	2.63937	-0.00192522	0.154727	287.139
326.0000	2.71359	-0.00191468	0.156408	287.311
325.5000	2.5158	-0.00192192	0.158271	287.477
325.0000	2.76612	-0.00190084	0.159517	287.64
324.5000	2.84644	-0.00191931	0.161733	287.807
324.0000	2.90238	-0.00192084	0.163269	288.004
323.5000	2.77711	-0.00193	0.165283	288.201
323.0000	2.7126	-0.00194057	0.16716	288.401
322.5000	2.82739	-0.00193693	0.168682	288.587
322.0000	2.83174	-0.00195226	0.171252	288.784
321.5000	2.73994	-0.00194922	0.174075	288.98
321.0000	2.86765	-0.0019381	0.176456	289.188
320.5000	2.87007	-0.00193729	0.17834	289.394
320.0000	2.73847	-0.00194406	0.179033	289.592
319.5000	2.79172	-0.00194439	0.18072	289.806
319.0000	2.63766	-0.00195197	0.182721	290.04
318.5000	2.71687	-0.00196006	0.184841	290.269
318.0000	2.9262	-0.00195432	0.186862	290.458
317.5000	2.85103	-0.0019781	0.189144	290.65
317.0000	2.83415	-0.00199599	0.19108	290.845
316.5000	2.69543	-0.00200283	0.193614	291.039
316.0000	2.7052	-0.0019893	0.194931	291.241
315.5000	2.778	-0.00199544	0.19685	291.438
315.0000	2.66785	-0.00200473	0.198936	291.665
314.5000	2.63031	-0.00201363	0.201026	291.882
314.0000	2.46572	-0.00203969	0.202317	292.11
313.5000	2.27742	-0.00203733	0.204167	292.34
313.0000	2.05021	-0.00204249	0.20594	292.59
312.5000	2.01746	-0.00206085	0.208151	292.826
312.0000	1.98186	-0.00206195	0.211085	293.083
311.5000	2.17817	-0.00205331	0.213879	293.343
311.0000	1.94812	-0.00207651	0.215589	293.623
310.5000	1.71651	-0.00208855	0.21836	293.933
310.0000	1.59334	-0.00210208	0.220624	294.236
309.5000	1.46082	-0.00208391	0.2236	294.553
309.0000	1.5199	-0.00209562	0.226817	294.91
308.5000	1.32404	-0.00210085	0.230982	295.282
308.0000	1.2609	-0.00211234	0.234286	295.646
307.5000	0.916278	-0.00212676	0.238646	296.063
307.0000	0.829793	-0.00213441	0.24275	296.459
306.5000	0.6106	-0.00213746	0.247522	296.91
306.0000	0.332038	-0.00214095	0.252293	297.363
305.5000	0.211761	-0.00212829	0.258223	297.875
305.0000	0.15823	-0.00214632	0.263968	298.397
304.5000	0.285171	-0.00216698	0.269681	298.975
304.0000	0.198532	-0.00216815	0.275935	299.603
303.5000	-0.0833659	-0.00219531	0.282187	300.233
303.0000	-0.462699	-0.00220991	0.289957	300.942
302.5000	-0.666153	-0.00220282	0.29825	301.673
302.0000	-0.969665	-0.00220326	0.305768	302.447
301.5000	-1.44549	-0.00220735	0.313639	303.243
301.0000	-1.82884	-0.00223613	0.322225	304.08
300.5000	-2.15094	-0.00221887	0.330139	304.856
300.0000	-2.43455	-0.00221381	0.338476	305.764
299.5000	-2.70866	-0.00221998	0.347394	306.65
299.0000	-2.86502	-0.00222993	0.356378	307.532
298.5000	-2.9729	-0.00223261	0.365711	308.467
298.0000	-3.1834	-0.00224045	0.373952	309.353
297.5000	-3.3397	-0.00224103	0.381023	310.263
297.0000	-3.46389	-0.00227881	0.38811	311.065
296.5000	-3.77274	-0.00227452	0.395908	311.832
296.0000	-3.98811	-0.00228474	0.403525	312.575
295.5000	-4.19366	-0.00230388	0.410703	313.293
295.0000	-4.41287	-0.0022874	0.417122	313.958
294.5000	-4.50565	-0.00229184	0.423348	314.628
294.0000	-4.58435	-0.0023099	0.429837	315.308
293.5000	-4.41994	-0.00229515	0.435207	315.852
293.0000	-4.42593	-0.00228229	0.440175	316.427
292.5000	-4.45951	-0.00228278	0.444965	317.001
292.0000	-4.22285	-0.00228757	0.44969	317.523
291.5000	-4.1796	-0.00227782	0.454014	318.012
291.0000	-4.21382	-0.00229001	0.45754	318.482
290.5000	-4.265	-0.00229122	0.461483	318.959
290.0000	-4.54838	-0.00230164	0.465093	319.402
289.5000	-4.71559	-0.00229419	0.469757	319.816
289.0000	-4.48001	-0.00228055	0.473906	320.223
288.5000	-4.69831	-0.00226503	0.47732	320.666
288.0000	-4.72612	-0.00225774	0.481083	321.111
287.5000	-4.79309	-0.00223513	0.484043	321.588
287.0000	-4.85225	-0.0022446	0.487581	322.092
286.5000	-5.04341	-0.00223502	0.490998	322.548
286.0000	-5.17388	-0.00221854	0.495225	322.993
285.5000	-5.30204	-0.00220517	0.498171	323.44
285.0000	-5.44681	-0.00222862	0.501829	323.907
284.5000	-5.94377	-0.00223493	0.505543	324.342
284.0000	-6.08748	-0.00222224	0.50976	324.802
283.5000	-6.2222	-0.00222942	0.514281	325.294
283.0000	-6.32247	-0.00220315	0.518927	325.774
282.5000	-6.46485	-0.0021964	0.523976	326.306
282.0000	-6.52265	-0.00217311	0.528625	326.851
281.5000	-6.54639	-0.00215882	0.532851	327.382
281.0000	-6.7647	-0.00214295	0.53793	327.93
280.5000	-7.1715	-0.00213965	0.543433	328.553
280.0000	-7.51414	-0.00214111	0.549986	329.213
279.5000	-7.96232	-0.00211654	0.556355	329.91
279.0000	-8.21992	-0.00212674	0.562934	330.608
278.5000	-8.49537	-0.00212081	0.569783	331.382
278.0000	-8.40497	-0.00211557	0.577254	332.258
277.5000	-8.69628	-0.00212469	0.58438	333.099
277.0000	-8.90669	-0.00210818	0.592595	334.031
276.5000	-9.13192	-0.00207337	0.601615	335.033
276.0000	-9.29021	-0.00206343	0.610456	335.982
275.5000	-9.57502	-0.00204702	0.620392	337.089
275.0000	-10.0622	-0.00204256	0.630595	338.262
274.5000	-10.7546	-0.00205589	0.641367	339.517
274.0000	-11.0799	-0.00205489	0.654141	340.935
273.5000	-11.5085	-0.00206761	0.66708	342.303
273.0000	-11.9174	-0.00204946	0.680824	343.819
272.5000	-12.6149	-0.00206623	0.694701	345.423
272.0000	-13.1141	-0.00204552	0.709026	347.118
271.5000	-13.5929	-0.00202947	0.72507	349.017
271.0000	-14.0392	-0.00204338	0.741813	350.943
270.5000	-14.8161	-0.00204093	0.759824	352.986
270.0000	-15.4292	-0.00202263	0.77859	355.15
269.5000	-16.8184	-0.00200902	0.797412	357.436
269.0000	-17.2534	-0.00199982	0.816719	359.728
268.5000	-17.9214	-0.00204611	0.838654	362.283
268.0000	-18.8813	-0.0020536	0.860821	365
267.5000	-19.5134	-0.00205657	0.883855	367.857
267.0000	-20.5188	-0.00206703	0.909637	371.019
266.5000	-21.1054	-0.00205543	0.936824	374.311
266.0000	-21.4721	-0.00206448	0.962087	377.399
265.5000	-21.9933	-0.00210382	0.989113	380.75
265.0000	-22.7806	-0.00210037	1.01833	384.374
264.5000	-23.3678	-0.00210457	1.04609	387.902
264.0000	-23.5592	-0.00215331	1.07412	391.477
263.5000	-23.7462	-0.00216334	1.10399	395.243
263.0000	-23.6398	-0.00214525	1.1306	398.654
262.5000	-24.2721	-0.00218641	1.15914	402.411
262.0000	-24.1823	-0.00214852	1.18583	405.994
261.5000	-23.4746	-0.00214918	1.21319	409.556
261.0000	-23.1347	-0.00218805	1.23857	412.931
260.5000	-23.3239	-0.0021913	1.26415	416.466
260.0000	-23.1944	-0.0021704	1.28959	419.995
259.5000	-22.9561	-0.00222783	1.31534	423.519
259.0000	-22.7163	-0.00220388	1.34062	427.036
258.5000	-22.8564	-0.00218949	1.36543	430.558
258.0000	-22.3044	-0.0021683	1.38989	434.104
257.5000	-22.1788	-0.00213118	1.41309	437.475
257.0000	-22.6033	-0.00211687	1.43765	441.056
256.5000	-22.3575	-0.00216146	1.4609	444.492
256.0000	-21.5988	-0.00217756	1.48611	448.164
255.5000	-22.3286	-0.00211654	1.51139	451.904
255.0000	-22.4124	-0.00210536	1.53673	455.72
254.5000	-22.7182	-0.00210836	1.56101	459.387
254.0000	-22.2641	-0.00209355	1.58562	463.074
253.5000	-22.7885	-0.00209546	1.6129	467.165
253.0000	-23.2826	-0.00207024	1.63744	470.872
252.5000	-23.6118	-0.00206901	1.67366	476.331
252.0000	-23.4877	-0.00213014	1.70313	480.759
251.5000	-23.1144	-0.00210014	1.72807	484.544
251.0000	-23.8628	-0.00217956	1.75152	488.221
250.5000	-24.3975	-0.00220003	1.77415	491.801
250.0000	-24.3359	-0.00217269	1.7948	495.108
249.5000	-24.1677	-0.00220781	1.81443	498.316
249.0000	-23.2805	-0.0022848	1.83401	501.591
248.5000	-22.6333	-0.00227389	1.85246	504.606
248.0000	-23.2842	-0.00215559	1.87103	507.676
247.5000	-23.9219	-0.00220648	1.88812	510.511
247.0000	-25.1309	-0.00234898	1.90547	513.42
246.5000	-24.5523	-0.00239596	1.9221	516.292
246.0000	-24.1525	-0.00244376	1.93878	519.153
245.5000	-25.0757	-0.00249563	1.95637	522.161
245.0000	-25.6297	-0.00253307	1.97384	525.195
244.5000	-27.7804	-0.00259409	1.99134	528.287
244.0000	-28.4287	-0.00266821	2.00911	531.479
243.5000	-30.6621	-0.00275722	2.02696	534.645
243.0000	-29.0633	-0.00272231	2.04564	537.963
242.5000	-28.7767	-0.00285022	2.06745	541.852
242.0000	-29.7583	-0.0029435	2.08763	545.439
241.5000	-28.6931	-0.00299793	2.11153	549.685
241.0000	-28.2005	-0.00308898	2.13543	553.827
240.5000	-30.1274	-0.00290028	2.16336	558.766
240.0000	-32.548	-0.00317718	2.19049	563.614
239.5000	-32.1769	-0.00337663	2.22416	569.692
239.0000	-30.0872	-0.00329724	2.25567	575.381
238.5000	-28.4127	-0.00346043	2.29173	581.841
238.0000	-31.9512	-0.00352849	2.33251	589.182
237.5000	-31.3514	-0.00353263	2.37153	596.364
237.0000	-31.7178	-0.00369106	2.41564	604.518
236.5000	-29.9123	-0.00370067	2.46199	613.243
236.0000	-27.9531	-0.00364515	2.50871	622.082
235.5000	-27.647	-0.00356214	2.5661	633.035
235.0000	-27.5585	-0.00332158	2.60723	640.981
234.5000	-29.162	-0.00351926	2.65291	649.873
234.0000	-27.5941	-0.00361508	2.70309	659.744
233.5000	-30.957	-0.00354716	2.76138	671.34
233.0000	-34.3254	-0.00344243	2.82511	684.106
232.5000	-33.2171	-0.00312606	2.88666	696.876
232.0000	-32.9228	-0.00313674	2.96053	712.324
231.5000	-30.9257	-0.00299464	3.02227	725.448
231.0000	-29.1327	-0.00306872	3.09221	740.526
230.5000	-28.6599	-0.00291135	3.16304	755.988
230.0000	-28.2616	-0.00270813	3.22987	770.957
229.5000	-28.2665	-0.0024151	3.29939	786.842
229.0000	-29.3098	-0.00250798	3.36724	802.695
228.5000	-29.8325	-0.00232396	3.4336	818.46
228.0000	-25.8054	-0.00205668	3.49494	833.238
227.5000	-25.5658	-0.00180806	3.55683	848.418
227.0000	-26.8766	-0.00161602	3.61497	863.062
226.5000	-27.8273	-0.00177439	3.67164	877.776
226.0000	-25.9827	-0.00135947	3.71922	890.383
225.5000	-26.0994	-0.000937695	3.76555	902.9
225.0000	-21.9719	-0.00130838	3.80814	914.553
224.5000	-22.7334	-0.0013487	3.84618	925.257
224.0000	-21.7298	-0.00127056	3.88007	934.963
223.5000	-20.4769	-0.00136882	3.90929	943.677
223.0000	-18.9214	-0.00136753	3.93402	951.336
222.5000	-21.7831	-0.00113644	3.95831	959.159
222.0000	-19.9986	-0.00118733	3.97587	965.17
221.5000	-17.3954	-0.00130959	3.9894	970.29
221.0000	-12.9854	-0.00087333	3.99821	973.891
220.5000	-12.1564	-0.00092788	4.00405	976.749
220.0000	-14.0168	-0.00117252	4.00755	979.087
219.5000	-13.1571	-0.0013351	4.00903	980.723
219.0000	-11.2619	-0.00130512	4.00884	981.913
218.5000	-5.09049	-0.00136116	4.00711	982.832
218.0000	-3.6143	-0.00102798	4.00469	983.224
217.5000	-3.36685	-0.00128104	4.0009	983.39
217.0000	-3.11251	-0.000955696	3.99603	983.265
216.5000	0.496236	-0.000790619	3.98872	982.797
216.0000	1.71775	-0.000786494	3.98087	982.075
215.5000	2.89785	-0.000271958	3.97213	981.056
215.0000	0.118388	-0.000203492	3.96304	979.872
214.5000	-0.461673	-5.4764E-005	3.95298	978.443
214.0000	2.10606	-0.00018265	3.94203	976.774
213.5000	-2.71283	-0.000151608	3.92982	974.826
213.0000	-1.40778	-0.000398421	3.91826	972.846
212.5000	0.577147	-0.000247361	3.90466	970.401
212.0000	1.40808	-0.000212417	3.8909	967.839
211.5000	3.96837	-0.000180761	3.87514	964.836
211.0000	2.87969	-0.000403941	3.86037	961.983
210.5000	0.883509	-0.000223937	3.84322	958.632
210.0000	-5.19476	-0.0003672	3.82588	955.167
209.5000	-6.25091	-0.000457119	3.8074	951.474
209.0000	-3.95713	-0.000291103	3.78802	947.612
208.5000	-7.71602	-0.000566306	3.76921	943.806
208.0000	-7.68928	-0.000471988	3.74784	939.477
207.5000	-8.50958	-0.000810301	3.72578	934.937
207.0000	-8.80469	-0.0011295	3.70294	930.172
206.5000	-11.7192	-0.00114816	3.67824	925.014
206.0000	-11.7685	-0.00115694	3.65326	919.868
205.5000	-11.046	-0.00121852	3.62875	914.757
205.0000	-14.5716	-0.00112411	3.60256	909.236
204.5000	-19.8835	-0.00134387	3.57341	903.212
204.0000	-21.6878	-0.00153694	3.54494	897.341
203.5000	-25.7542	-0.00152503	3.51398	891.031
203.0000	-28.5333	-0.00180474	3.48275	884.648
202.5000	-27.3791	-0.00181862	3.44999	877.895
202.0000	-23.6162	-0.00189821	3.41658	871.124
201.5000	-25.4095	-0.00193429	3.38353	864.38
201.0000	-24.6821	-0.00228797	3.35241	858.009
200.5000	-28.62	-0.00239301	3.31868	851.157
200.0000	-31.8908	-0.00259167	3.28591	844.534

##### Extended Information
[Comments]
Sample name	S-JS after DT 72 hrs
Comment
User
Division
Company	Labo systeme complexes hors equilibre

[Detailed Information]
Creation date	7/14/2025 2:45 PM

Data array type	Linear data array * 4
Horizontal axis	Wavelength [nm]
Vertical axis(1)	CD [mdeg]
Vertical axis(2)	LD [dOD]
Vertical axis(3)	Abs
Vertical axis(4)	HT [V]
Start	700 nm
End	200 nm
Data interval	0.5 nm
Data points	1001    

[Measurement Information]
Instrument name	CD Jasco
Model name	J-1500
Serial No.	A005261638

Detector	PM-539
Detector S/N	A0052PM539
  Lock-in amp.	X mode
  HT volt	Auto

Detector	EXPML-535
Detector S/N	A0001
  Lock-in amp.	X mode
  HT volt	Auto

Measurement date	7/14/2025 2:45 PM

Overload detect	1
Photometric mode	CD, LD, Abs, HT
Measure range	700 - 200 nm
Data pitch	0.5 nm
CD scale	200 mdeg/1.0 dOD
FL scale	200 mdeg/1.0 dOD
D.I.T.	1 sec
Bandwidth	1.00 nm
Start mode	Immediately
Scanning speed	500 nm/min
Baseline correction	Baseline
Shutter control	Auto

Solvent	water 

