TITLE	15% S-JS after 72 hrs
DATA TYPE	
ORIGIN	JASCO
OWNER	
DATE	25/10/13
TIME	15:59:09
SPECTROMETER/DATA SYSTEM	
LOCALE	1033
RESOLUTION	
DELTAX	-0.5
XUNITS	NANOMETERS
YUNITS	CD [mdeg]
Y2UNITS	LD [dOD]
Y3UNITS	ABSORBANCE
Y4UNITS	HT [V]
FIRSTX	  700.0000
LASTX	  250.0000
NPOINTS	     901
FIRSTY	     9.26344
MAXY	   255.77281
MINY	   -43.11905
XYDATA
700.0000	9.26344	-0.00439348	0.228307	330.02
699.5000	9.20783	-0.00438555	0.228063	329.443
699.0000	9.44976	-0.00439326	0.227887	328.773
698.5000	9.69024	-0.00444473	0.227706	328.067
698.0000	9.93262	-0.00452146	0.227772	327.371
697.5000	10.2664	-0.00457906	0.228018	326.729
697.0000	9.70317	-0.0046184	0.228521	326.126
696.5000	9.91361	-0.00465876	0.229114	325.614
696.0000	10.1154	-0.00464729	0.229777	325.154
695.5000	10.3975	-0.00466382	0.230505	324.798
695.0000	10.8426	-0.00467837	0.230828	324.516
694.5000	10.9603	-0.00472918	0.231493	324.293
694.0000	11.0907	-0.00476728	0.232019	324.096
693.5000	11.2238	-0.00480336	0.232501	323.926
693.0000	11.3956	-0.00482509	0.232939	323.786
692.5000	11.3688	-0.00483363	0.233587	323.7
692.0000	11.3612	-0.00486928	0.234413	323.693
691.5000	11.5925	-0.00490031	0.235521	323.791
691.0000	11.5607	-0.00493433	0.236694	324.025
690.5000	11.8698	-0.00494188	0.23777	324.354
690.0000	11.7103	-0.00494219	0.238384	324.743
689.5000	11.7722	-0.00496724	0.238961	325.171
689.0000	11.9026	-0.00497968	0.239357	325.575
688.5000	11.6729	-0.00501195	0.239705	325.966
688.0000	11.5849	-0.00505204	0.239866	326.328
687.5000	11.6294	-0.00509036	0.23993	326.653
687.0000	11.2466	-0.00509875	0.240224	326.94
686.5000	11.1724	-0.00512441	0.240526	327.211
686.0000	11.3065	-0.00513163	0.240867	327.477
685.5000	11.1485	-0.00514727	0.241277	327.764
685.0000	11.057	-0.00518205	0.241656	328.071
684.5000	10.6451	-0.00519822	0.24192	328.389
684.0000	10.6	-0.00523643	0.241979	328.696
683.5000	10.766	-0.00524455	0.242003	328.976
683.0000	10.8909	-0.005248	0.241895	329.191
682.5000	10.9903	-0.0052633	0.241526	329.31
682.0000	10.9953	-0.00529946	0.241352	329.357
681.5000	11.2509	-0.00532673	0.241279	329.355
681.0000	11.1894	-0.00535256	0.241447	329.324
680.5000	11.0257	-0.0053909	0.241875	329.292
680.0000	11.3259	-0.00537061	0.242249	329.257
679.5000	11.5174	-0.00536467	0.242654	329.24
679.0000	11.3933	-0.00540833	0.242927	329.234
678.5000	11.6143	-0.00543739	0.24312	329.223
678.0000	11.7418	-0.00543733	0.243516	329.232
677.5000	12.0978	-0.00546594	0.243823	329.239
677.0000	12.2266	-0.00547615	0.244344	329.26
676.5000	12.3366	-0.00550752	0.244693	329.3
676.0000	12.6786	-0.0054932	0.245091	329.349
675.5000	12.6995	-0.005519	0.245599	329.401
675.0000	13.0933	-0.00554936	0.245969	329.46
674.5000	13.2095	-0.00556778	0.246269	329.528
674.0000	13.424	-0.00558176	0.246917	329.623
673.5000	13.4962	-0.0055764	0.247302	329.714
673.0000	13.6824	-0.00557711	0.247508	329.81
672.5000	13.8537	-0.00559379	0.2476	329.916
672.0000	14.1008	-0.00561147	0.247805	330.025
671.5000	13.9618	-0.00564211	0.248193	330.132
671.0000	14.0937	-0.00565297	0.24869	330.247
670.5000	14.4354	-0.00566668	0.249131	330.362
670.0000	14.4367	-0.00567834	0.249468	330.492
669.5000	14.121	-0.00568298	0.249873	330.625
669.0000	14.3426	-0.00568911	0.250269	330.77
668.5000	14.2164	-0.00571478	0.250652	330.908
668.0000	14.2017	-0.00573777	0.251281	331.066
667.5000	14.2538	-0.00574554	0.25164	331.215
667.0000	14.1132	-0.00576706	0.25173	331.358
666.5000	13.7419	-0.00578613	0.252242	331.495
666.0000	13.3871	-0.00581559	0.252663	331.623
665.5000	13.6007	-0.00586513	0.253136	331.743
665.0000	13.3161	-0.00590935	0.253597	331.835
664.5000	13.6191	-0.00591436	0.254081	331.917
664.0000	13.5862	-0.00593434	0.254365	331.971
663.5000	13.7385	-0.00594643	0.254616	332.009
663.0000	13.9116	-0.00597382	0.254911	332.038
662.5000	13.7781	-0.00600157	0.255332	332.057
662.0000	13.8597	-0.00601722	0.255614	332.049
661.5000	14.0858	-0.00604685	0.255898	332.019
661.0000	14.1769	-0.00604091	0.256156	331.964
660.5000	14.2351	-0.00603382	0.256464	331.877
660.0000	14.6247	-0.00605073	0.256633	331.759
659.5000	14.917	-0.00606127	0.256918	331.624
659.0000	15.2501	-0.00610615	0.257339	331.438
658.5000	15.881	-0.00612235	0.257507	331.217
658.0000	15.9634	-0.006145	0.257599	330.988
657.5000	15.9198	-0.00614098	0.257937	330.738
657.0000	16.1654	-0.00615982	0.2584	330.522
656.5000	16.0631	-0.00619282	0.258888	330.317
656.0000	16.2925	-0.00621632	0.259574	330.145
655.5000	16.1982	-0.00622654	0.260272	330.006
655.0000	16.3893	-0.00623373	0.260934	329.886
654.5000	16.394	-0.00625287	0.261534	329.797
654.0000	16.4067	-0.00628252	0.262395	329.759
653.5000	16.8397	-0.00630505	0.263228	329.762
653.0000	16.7883	-0.0063601	0.264051	329.789
652.5000	16.7192	-0.00638471	0.264751	329.856
652.0000	17.0817	-0.00642428	0.265589	329.956
651.5000	16.8215	-0.00646158	0.266556	330.104
651.0000	17.0234	-0.00648498	0.267443	330.289
650.5000	17.2993	-0.00650024	0.268498	330.523
650.0000	17.4577	-0.00651194	0.269339	330.764
649.5000	17.6623	-0.00652926	0.270138	331.014
649.0000	17.8505	-0.0065625	0.270748	331.245
648.5000	18.1565	-0.00656374	0.271358	331.49
648.0000	18.1167	-0.00658933	0.272034	331.717
647.5000	18.3607	-0.00661947	0.272586	331.909
647.0000	18.6706	-0.00666698	0.273268	332.092
646.5000	18.7547	-0.006684	0.273831	332.228
646.0000	18.7083	-0.00671477	0.274431	332.324
645.5000	18.8614	-0.00671754	0.274849	332.366
645.0000	19.1778	-0.00672601	0.275472	332.403
644.5000	19.4461	-0.00676621	0.276444	332.439
644.0000	19.6735	-0.00680595	0.277155	332.441
643.5000	19.7145	-0.00685849	0.277798	332.422
643.0000	19.9914	-0.00690004	0.278421	332.377
642.5000	20.2602	-0.00693292	0.279032	332.321
642.0000	19.8842	-0.00693311	0.279708	332.261
641.5000	19.857	-0.00698204	0.280486	332.211
641.0000	20.1276	-0.00701764	0.281358	332.158
640.5000	20.4687	-0.00705002	0.282398	332.119
640.0000	20.2692	-0.00707479	0.283341	332.065
639.5000	20.6875	-0.00708785	0.284361	332.005
639.0000	20.8461	-0.0071043	0.285207	331.937
638.5000	20.932	-0.00717871	0.286249	331.896
638.0000	21.1012	-0.00724714	0.287315	331.874
637.5000	21.3953	-0.00731175	0.2885	331.871
637.0000	21.3941	-0.00735411	0.289567	331.863
636.5000	21.4211	-0.00740405	0.290493	331.862
636.0000	21.7219	-0.00745324	0.291546	331.881
635.5000	22.2946	-0.00746047	0.292619	331.908
635.0000	22.7655	-0.00747907	0.293805	331.94
634.5000	22.7845	-0.00749971	0.295011	331.987
634.0000	23.273	-0.00754833	0.296163	332.035
633.5000	23.5884	-0.00759473	0.297193	332.068
633.0000	23.7084	-0.0076644	0.298292	332.102
632.5000	24.2218	-0.00770072	0.299525	332.132
632.0000	24.5354	-0.00774591	0.30075	332.161
631.5000	25.0201	-0.00782258	0.302016	332.197
631.0000	25.3367	-0.00786872	0.303231	332.229
630.5000	25.9012	-0.00791454	0.304725	332.262
630.0000	26.1753	-0.007929	0.306153	332.286
629.5000	26.4932	-0.00793278	0.307578	332.301
629.0000	26.6099	-0.00799887	0.309	332.328
628.5000	26.9692	-0.00802528	0.310348	332.361
628.0000	27.2782	-0.00803372	0.311912	332.396
627.5000	27.4452	-0.00809413	0.313505	332.442
627.0000	27.6795	-0.00816214	0.315007	332.502
626.5000	27.6201	-0.00821903	0.316593	332.583
626.0000	28.2	-0.00828398	0.318262	332.686
625.5000	28.2615	-0.00833468	0.320024	332.813
625.0000	28.8701	-0.00836101	0.321837	332.965
624.5000	29.1466	-0.00841608	0.323672	333.134
624.0000	29.2936	-0.00847703	0.325564	333.334
623.5000	29.5677	-0.00853381	0.327452	333.538
623.0000	29.6254	-0.00859498	0.329355	333.753
622.5000	30.0845	-0.0086656	0.331159	333.984
622.0000	30.3839	-0.00870719	0.332892	334.22
621.5000	31.0074	-0.00875896	0.334802	334.484
621.0000	31.7259	-0.00882898	0.336757	334.772
620.5000	32.1033	-0.00886094	0.338579	335.048
620.0000	32.6595	-0.00893673	0.340679	335.362
619.5000	33.439	-0.00903442	0.34296	335.737
619.0000	34.0229	-0.00909436	0.345262	336.118
618.5000	34.8365	-0.00917082	0.347698	336.516
618.0000	35.6885	-0.0092463	0.350157	336.891
617.5000	36.1615	-0.00932128	0.35259	337.265
617.0000	36.7695	-0.00940183	0.354925	337.633
616.5000	37.2373	-0.00948682	0.357236	337.994
616.0000	37.7368	-0.00952702	0.359501	338.347
615.5000	38.9111	-0.00959189	0.361868	338.697
615.0000	39.5913	-0.00966418	0.364345	339.045
614.5000	40.5972	-0.00972239	0.366809	339.393
614.0000	41.0493	-0.00976878	0.369285	339.737
613.5000	41.4344	-0.00986136	0.3717	340.08
613.0000	41.9367	-0.0099565	0.37445	340.446
612.5000	42.7714	-0.0100744	0.377295	340.81
612.0000	43.4651	-0.0101486	0.38031	341.163
611.5000	44.0791	-0.0102165	0.383266	341.492
611.0000	45.005	-0.0103063	0.386177	341.831
610.5000	45.8468	-0.0103816	0.389314	342.187
610.0000	46.3281	-0.010448	0.392288	342.514
609.5000	47.1755	-0.010568	0.39545	342.864
609.0000	47.9209	-0.0106507	0.398539	343.195
608.5000	49.0135	-0.0107523	0.401961	343.55
608.0000	50.0869	-0.0108556	0.405298	343.873
607.5000	50.5166	-0.0109599	0.408773	344.194
607.0000	51.4042	-0.011076	0.412715	344.572
606.5000	52.2714	-0.0111815	0.41658	344.961
606.0000	53.6603	-0.0112808	0.420775	345.367
605.5000	55.0655	-0.0113862	0.425263	345.776
605.0000	56.3326	-0.0115139	0.429462	346.158
604.5000	57.554	-0.0116158	0.433727	346.54
604.0000	58.8617	-0.0117224	0.438132	346.942
603.5000	60.2483	-0.011861	0.442701	347.351
603.0000	61.6053	-0.0119448	0.447291	347.761
602.5000	63.1587	-0.0120677	0.452234	348.2
602.0000	64.4764	-0.0121474	0.457115	348.624
601.5000	66.1457	-0.0122441	0.462267	349.08
601.0000	68.0844	-0.012363	0.46762	349.535
600.5000	69.6509	-0.0124676	0.473392	350.029
600.0000	71.5999	-0.0126041	0.479354	350.529
599.5000	73.9516	-0.0127258	0.485502	351.048
599.0000	75.9842	-0.0128572	0.491843	351.568
598.5000	78.4218	-0.0130244	0.498552	352.087
598.0000	80.6502	-0.0131634	0.504972	352.597
597.5000	82.8724	-0.0133133	0.511693	353.157
597.0000	84.8807	-0.0134464	0.518937	353.763
596.5000	87.627	-0.0135446	0.526169	354.356
596.0000	90.3156	-0.0136643	0.533742	354.981
595.5000	92.9132	-0.0137803	0.541321	355.623
595.0000	95.4103	-0.0139515	0.549156	356.258
594.5000	97.8547	-0.0140702	0.557685	356.975
594.0000	101.696	-0.0142821	0.566938	357.765
593.5000	105.214	-0.0144234	0.576355	358.55
593.0000	108.74	-0.0145571	0.586154	359.392
592.5000	112.265	-0.0147583	0.596168	360.274
592.0000	115.826	-0.0148983	0.605942	361.169
591.5000	118.798	-0.0150609	0.615369	362.031
591.0000	122.782	-0.0151925	0.62553	362.99
590.5000	126.556	-0.0152789	0.635694	363.975
590.0000	130.181	-0.0154266	0.6467	365.046
589.5000	133.912	-0.0155515	0.657738	366.132
589.0000	137.822	-0.0157397	0.669013	367.238
588.5000	141.895	-0.0159093	0.681136	368.432
588.0000	146.322	-0.016082	0.693584	369.673
587.5000	150.542	-0.0162618	0.706387	370.981
587.0000	154.952	-0.0164139	0.719678	372.369
586.5000	159.684	-0.0165469	0.732542	373.696
586.0000	163.629	-0.0166777	0.745422	375.028
585.5000	167.453	-0.0168005	0.757752	376.337
585.0000	171.422	-0.016977	0.770625	377.715
584.5000	175.314	-0.0170984	0.782901	379.031
584.0000	178.963	-0.0171984	0.795992	380.433
583.5000	182.574	-0.0173323	0.809266	381.852
583.0000	186.203	-0.017439	0.823358	383.355
582.5000	190.313	-0.0175905	0.837295	384.851
582.0000	194.342	-0.0177425	0.851053	386.311
581.5000	198.549	-0.0178737	0.864748	387.771
581.0000	202.379	-0.0179924	0.878343	389.218
580.5000	206.33	-0.01807	0.891168	390.616
580.0000	208.557	-0.0181594	0.903636	391.95
579.5000	211.247	-0.0182582	0.915921	393.253
579.0000	214.158	-0.0182992	0.927424	394.486
578.5000	216.159	-0.0183872	0.938513	395.657
578.0000	218.203	-0.01843	0.949129	396.787
577.5000	219.772	-0.0185117	0.95983	397.919
577.0000	220.671	-0.0185423	0.969728	398.919
576.5000	221.776	-0.0185795	0.97949	399.918
576.0000	222.978	-0.0186052	0.988114	400.808
575.5000	223.68	-0.0186134	0.996393	401.639
575.0000	223.707	-0.018638	1.00313	402.32
574.5000	223.347	-0.0186275	1.00965	402.973
574.0000	222.732	-0.0186213	1.01522	403.501
573.5000	221.385	-0.0185914	1.02	403.952
573.0000	219.77	-0.0185691	1.02427	404.345
572.5000	218.118	-0.0185343	1.02776	404.62
572.0000	216.5	-0.0184758	1.03083	404.843
571.5000	215.629	-0.0184644	1.03327	404.984
571.0000	213.775	-0.0183736	1.03494	405.022
570.5000	211.815	-0.0183354	1.03592	404.997
570.0000	209.718	-0.0182509	1.03641	404.922
569.5000	207.6	-0.0182076	1.03637	404.768
569.0000	205.662	-0.0181334	1.03556	404.536
568.5000	203.916	-0.0180678	1.03456	404.273
568.0000	201.27	-0.0179928	1.03296	403.902
567.5000	199.064	-0.0179196	1.03092	403.481
567.0000	196.891	-0.0178509	1.02887	403.081
566.5000	195.465	-0.017753	1.02644	402.614
566.0000	193.515	-0.0177008	1.02389	402.13
565.5000	192.05	-0.0176498	1.02137	401.648
565.0000	190.686	-0.0175625	1.01873	401.139
564.5000	189.382	-0.0174678	1.01599	400.65
564.0000	188.489	-0.0174078	1.01338	400.177
563.5000	187.563	-0.0173691	1.01084	399.696
563.0000	186.164	-0.0173101	1.00822	399.229
562.5000	184.989	-0.017281	1.00609	398.788
562.0000	184.339	-0.0172522	1.0042	398.375
561.5000	183.702	-0.0172	1.00227	397.943
561.0000	182.997	-0.0171291	1.00074	397.556
560.5000	183.182	-0.0170766	0.999536	397.214
560.0000	183.151	-0.0170475	0.998578	396.94
559.5000	183.368	-0.0170438	0.998082	396.691
559.0000	183.458	-0.0170389	0.998098	396.505
558.5000	184.632	-0.0169908	0.998421	396.368
558.0000	185.261	-0.0170006	0.999169	396.298
557.5000	185.946	-0.0169961	1.00041	396.283
557.0000	187.443	-0.0169506	1.00237	396.349
556.5000	188.709	-0.0169937	1.00486	396.469
556.0000	190.161	-0.0170315	1.00805	396.658
555.5000	191.195	-0.0170755	1.01175	396.92
555.0000	192.917	-0.0170989	1.01603	397.242
554.5000	194.775	-0.0171132	1.02086	397.65
554.0000	197.6	-0.0170882	1.02616	398.11
553.5000	199.4	-0.0171753	1.03135	398.559
553.0000	201.122	-0.0172449	1.03707	399.094
552.5000	203.219	-0.0173164	1.04337	399.697
552.0000	205.943	-0.017386	1.05064	400.377
551.5000	208.285	-0.0174034	1.05803	401.085
551.0000	211.171	-0.0174233	1.0664	401.931
550.5000	214.199	-0.0174974	1.07525	402.802
550.0000	216.536	-0.0175183	1.08511	403.795
549.5000	219.459	-0.0176216	1.09468	404.771
549.0000	221.656	-0.0176747	1.10463	405.81
548.5000	224.584	-0.0177381	1.1152	406.937
548.0000	228.138	-0.0177845	1.12674	408.141
547.5000	231.117	-0.017873	1.13799	409.344
547.0000	234.659	-0.017959	1.14986	410.629
546.5000	237.538	-0.018016	1.16159	411.921
546.0000	240.492	-0.0180902	1.17366	413.268
545.5000	242.409	-0.0181732	1.18588	414.622
545.0000	244.775	-0.0181564	1.19773	415.968
544.5000	247.186	-0.0182304	1.21018	417.352
544.0000	249.496	-0.0182575	1.22246	418.748
543.5000	251.241	-0.0183512	1.23474	420.144
543.0000	252.803	-0.0184416	1.2469	421.528
542.5000	252.896	-0.0185424	1.25915	422.916
542.0000	254.173	-0.0186346	1.27138	424.281
541.5000	255.165	-0.0187106	1.28319	425.636
541.0000	255.773	-0.0187131	1.29485	426.946
540.5000	255.692	-0.0187976	1.30652	428.253
540.0000	255.238	-0.0188192	1.31759	429.473
539.5000	254.537	-0.0188437	1.32774	430.623
539.0000	253.097	-0.0188386	1.33796	431.775
538.5000	251.216	-0.0188856	1.34793	432.874
538.0000	248.896	-0.0189234	1.35656	433.811
537.5000	247.469	-0.0188914	1.3649	434.702
537.0000	245.607	-0.0189642	1.37284	435.523
536.5000	243.469	-0.0190026	1.37958	436.211
536.0000	239.45	-0.0190513	1.38612	436.854
535.5000	235.935	-0.019079	1.39179	437.4
535.0000	232.666	-0.0190133	1.39695	437.862
534.5000	229.954	-0.0189622	1.40106	438.181
534.0000	226.281	-0.0189272	1.4044	438.448
533.5000	222.004	-0.0189234	1.40723	438.65
533.0000	217.713	-0.0189376	1.40948	438.739
532.5000	214.214	-0.0188994	1.41107	438.775
532.0000	209.996	-0.0189313	1.4122	438.747
531.5000	206.381	-0.0188998	1.41295	438.651
531.0000	201.422	-0.0188575	1.41311	438.449
530.5000	197.989	-0.0188423	1.41285	438.199
530.0000	193.087	-0.018771	1.41199	437.87
529.5000	189.215	-0.0187007	1.41105	437.528
529.0000	184.695	-0.0186965	1.4096	437.137
528.5000	180.838	-0.0186553	1.40787	436.725
528.0000	177.008	-0.0186051	1.40604	436.324
527.5000	173.755	-0.0185387	1.40383	435.849
527.0000	170.677	-0.0184903	1.40118	435.286
526.5000	165.875	-0.0184664	1.39852	434.75
526.0000	161.791	-0.0183892	1.39565	434.172
525.5000	157.94	-0.0183351	1.39277	433.582
525.0000	154.477	-0.0182856	1.38981	433.006
524.5000	151.717	-0.0182177	1.3871	432.458
524.0000	148.236	-0.0181416	1.38461	431.949
523.5000	145.072	-0.0180651	1.38214	431.441
523.0000	141.73	-0.0180573	1.37978	430.942
522.5000	138.761	-0.0180068	1.37775	430.506
522.0000	136.059	-0.0179679	1.37571	430.062
521.5000	133.558	-0.0179791	1.37385	429.652
521.0000	131.64	-0.0179079	1.37202	429.248
520.5000	129.408	-0.017868	1.37055	428.89
520.0000	127.463	-0.0178123	1.36934	428.555
519.5000	125.145	-0.0177657	1.36836	428.22
519.0000	123.094	-0.0177389	1.36777	427.941
518.5000	120.837	-0.017698	1.36754	427.74
518.0000	119.037	-0.0176586	1.36747	427.571
517.5000	116.852	-0.0176529	1.36759	427.447
517.0000	114.681	-0.0176206	1.36795	427.339
516.5000	112.284	-0.0176515	1.3684	427.248
516.0000	109.985	-0.0176379	1.36907	427.19
515.5000	107.611	-0.017659	1.36986	427.171
515.0000	105.573	-0.0175721	1.37055	427.144
514.5000	102.815	-0.0175786	1.37143	427.134
514.0000	101.032	-0.0175701	1.37227	427.104
513.5000	98.8768	-0.0175751	1.37316	427.078
513.0000	95.7535	-0.0175802	1.37418	427.068
512.5000	92.449	-0.0176073	1.37525	427.077
512.0000	89.2338	-0.0175799	1.37613	427.065
511.5000	86.1096	-0.0175749	1.37676	427.042
511.0000	82.9461	-0.017591	1.37706	426.97
510.5000	79.3253	-0.0175963	1.37707	426.832
510.0000	75.8954	-0.0175794	1.37686	426.634
509.5000	71.5366	-0.0175911	1.37622	426.356
509.0000	67.7144	-0.0175819	1.37519	426.036
508.5000	63.8817	-0.0174939	1.3738	425.681
508.0000	59.9282	-0.0174574	1.3718	425.261
507.5000	55.9979	-0.0174254	1.36925	424.806
507.0000	51.8504	-0.0174164	1.36641	424.319
506.5000	47.965	-0.0173773	1.36323	423.796
506.0000	43.8377	-0.0173585	1.36004	423.26
505.5000	39.7484	-0.0173788	1.35594	422.623
505.0000	35.2776	-0.017381	1.35123	421.915
504.5000	30.4007	-0.0172896	1.34552	421.056
504.0000	25.5908	-0.0172768	1.33945	420.137
503.5000	20.908	-0.0172611	1.33273	419.137
503.0000	16.794	-0.0171952	1.32516	418.017
502.5000	12.9304	-0.0171374	1.31777	416.928
502.0000	9.58375	-0.0170669	1.30926	415.718
501.5000	5.6127	-0.0170582	1.30041	414.464
501.0000	1.9614	-0.0169805	1.29071	413.059
500.5000	-1.24182	-0.0169507	1.28055	411.501
500.0000	-4.85385	-0.016924	1.26996	409.778
499.5000	-8.53263	-0.0168234	1.25885	407.862
499.0000	-12.1467	-0.0167247	1.24664	405.653
498.5000	-15.3375	-0.0166105	1.23446	403.397
498.0000	-18.1402	-0.0165033	1.22217	401.122
497.5000	-21.7721	-0.0163409	1.20947	398.899
497.0000	-24.5149	-0.0161825	1.1976	397.004
496.5000	-26.7025	-0.0160075	1.18462	395.158
496.0000	-28.447	-0.0159208	1.17202	393.443
495.5000	-30.0305	-0.0157473	1.15839	391.638
495.0000	-32.1075	-0.0155882	1.14538	389.919
494.5000	-34.0221	-0.0154658	1.13222	388.22
494.0000	-35.3696	-0.0152989	1.12011	386.668
493.5000	-36.8404	-0.0151078	1.10742	385.054
493.0000	-38.0252	-0.014949	1.09548	383.57
492.5000	-39.047	-0.0148171	1.08289	382.049
492.0000	-39.8034	-0.014621	1.06927	380.44
491.5000	-40.5356	-0.0144697	1.05655	379.001
491.0000	-41.338	-0.01433	1.04397	377.655
490.5000	-42.3474	-0.0142176	1.0319	376.4
490.0000	-42.5051	-0.0140975	1.01996	375.144
489.5000	-42.579	-0.013958	1.00819	373.768
489.0000	-42.4233	-0.0138	0.99553	372.047
488.5000	-42.2115	-0.0136529	0.983832	370.275
488.0000	-42.746	-0.0135175	0.972421	368.418
487.5000	-42.9029	-0.0133589	0.961296	366.504
487.0000	-43.119	-0.0132081	0.951133	364.737
486.5000	-42.7256	-0.0130361	0.940955	363.049
486.0000	-42.5956	-0.0128753	0.931679	361.657
485.5000	-42.3721	-0.0127497	0.922388	360.397
485.0000	-42.3753	-0.012624	0.912778	359.179
484.5000	-42.1147	-0.0124677	0.903603	358.051
484.0000	-41.91	-0.0123001	0.894011	356.949
483.5000	-42.0359	-0.0121406	0.885092	355.98
483.0000	-41.9987	-0.0119945	0.875997	355.037
482.5000	-41.9211	-0.0118549	0.867923	354.224
482.0000	-41.3517	-0.0117249	0.86007	353.471
481.5000	-41.1862	-0.0115931	0.851943	352.728
481.0000	-40.8775	-0.0114783	0.844224	352.037
480.5000	-40.9039	-0.0113813	0.836471	351.301
480.0000	-41.0877	-0.011278	0.827706	350.233
479.5000	-40.784	-0.0111588	0.81937	348.887
479.0000	-40.5395	-0.0110518	0.812093	347.602
478.5000	-40.3159	-0.0109245	0.80587	346.694
478.0000	-40.222	-0.010811	0.79888	345.854
477.5000	-40.2992	-0.0107159	0.791503	344.919
477.0000	-40.1278	-0.0106172	0.783725	343.741
476.5000	-40.2361	-0.0104986	0.774777	342.141
476.0000	-40.2652	-0.0104032	0.766218	340.436
475.5000	-40.2045	-0.0102974	0.757806	338.59
475.0000	-39.6748	-0.010172	0.749005	336.575
474.5000	-39.2658	-0.0100443	0.740534	334.479
474.0000	-38.9204	-0.00991948	0.732287	332.244
473.5000	-38.8274	-0.00975988	0.724087	329.956
473.0000	-38.6692	-0.00959712	0.716447	328.013
472.5000	-38.2824	-0.00944659	0.70864	326.504
472.0000	-38.0688	-0.00926068	0.701333	325.495
471.5000	-37.8994	-0.00909556	0.693755	324.927
471.0000	-37.9456	-0.00897745	0.686744	324.606
470.5000	-37.7151	-0.0088858	0.678487	324.052
470.0000	-37.2898	-0.00879131	0.670438	323.153
469.5000	-37.1388	-0.0086938	0.662374	321.97
469.0000	-36.7362	-0.00853111	0.653985	320.666
468.5000	-36.3038	-0.00838357	0.645849	319.531
468.0000	-36.0561	-0.00822124	0.63793	318.703
467.5000	-35.8012	-0.00808635	0.630425	318.191
467.0000	-35.5934	-0.00795158	0.623472	317.929
466.5000	-35.2717	-0.00782304	0.616817	317.915
466.0000	-34.9153	-0.0076601	0.60971	318.13
465.5000	-34.7191	-0.00754578	0.601941	318.48
465.0000	-34.4627	-0.00742903	0.592971	318.646
464.5000	-34.173	-0.00728503	0.583599	318.302
464.0000	-33.9168	-0.0071517	0.574964	317.626
463.5000	-33.4843	-0.00701329	0.567381	316.926
463.0000	-32.9986	-0.00687913	0.560033	316.26
462.5000	-32.3804	-0.00673737	0.552773	315.697
462.0000	-32.0626	-0.00656229	0.54544	315.29
461.5000	-31.435	-0.00643324	0.538436	315.065
461.0000	-30.9626	-0.00629432	0.531528	314.955
460.5000	-30.5182	-0.00614194	0.524177	314.87
460.0000	-29.7165	-0.00601382	0.517084	314.688
459.5000	-29.431	-0.00588921	0.510352	314.389
459.0000	-28.8263	-0.0057426	0.503148	313.86
458.5000	-28.4275	-0.00563234	0.49651	313.135
458.0000	-28.085	-0.00552823	0.490363	312.343
457.5000	-27.5601	-0.00540256	0.484566	311.662
457.0000	-26.9321	-0.00527862	0.478245	311.022
456.5000	-26.4442	-0.00516725	0.471711	310.214
456.0000	-25.9203	-0.00505779	0.465576	309.258
455.5000	-25.3359	-0.00493123	0.459871	308.394
455.0000	-24.7346	-0.00484784	0.454744	307.876
454.5000	-24.3045	-0.00474798	0.449066	307.484
454.0000	-23.9339	-0.00463025	0.443384	307.08
453.5000	-23.2914	-0.0045364	0.437917	306.651
453.0000	-22.8907	-0.00445194	0.433143	306.234
452.5000	-22.5178	-0.00437316	0.428228	305.803
452.0000	-21.9815	-0.00427929	0.423158	305.35
451.5000	-21.5611	-0.00418136	0.418105	304.873
451.0000	-20.8801	-0.0040944	0.413409	304.441
450.5000	-20.4342	-0.00399757	0.408894	304.149
450.0000	-19.9879	-0.00390331	0.404489	304.02
449.5000	-19.6728	-0.00381839	0.399617	303.853
449.0000	-19.5532	-0.00374196	0.395268	303.566
448.5000	-19.4152	-0.00365961	0.391228	303.333
448.0000	-19.1256	-0.00357763	0.387606	303.386
447.5000	-18.8338	-0.00350548	0.383495	303.546
447.0000	-18.6325	-0.00342105	0.378738	303.471
446.5000	-18.2817	-0.00332546	0.374334	303.13
446.0000	-17.9575	-0.00324025	0.370078	302.657
445.5000	-17.7422	-0.00316928	0.365737	302.144
445.0000	-17.5401	-0.00307386	0.361291	301.572
444.5000	-17.2846	-0.00299167	0.356891	300.962
444.0000	-17.1089	-0.00289928	0.353009	300.402
443.5000	-17.0156	-0.00282318	0.348959	299.856
443.0000	-16.6781	-0.00274098	0.345384	299.421
442.5000	-16.5949	-0.00267032	0.341801	299.004
442.0000	-16.3391	-0.00259986	0.338772	298.655
441.5000	-16.3438	-0.00252556	0.335173	298.262
441.0000	-16.1444	-0.00245877	0.331939	297.912
440.5000	-15.8098	-0.0023838	0.328461	297.564
440.0000	-15.4462	-0.00231297	0.325075	297.22
439.5000	-15.0635	-0.0022487	0.321559	296.879
439.0000	-14.8273	-0.00217337	0.317777	296.506
438.5000	-14.3424	-0.00210754	0.313725	296.105
438.0000	-14.0767	-0.00204585	0.309781	295.721
437.5000	-13.8034	-0.00197528	0.306271	295.381
437.0000	-13.7143	-0.00190905	0.30279	295.071
436.5000	-13.5759	-0.00184595	0.299641	294.841
436.0000	-13.1851	-0.00177407	0.296809	294.648
435.5000	-12.768	-0.00172561	0.293888	294.44
435.0000	-12.5485	-0.00165457	0.290594	294.169
434.5000	-12.3808	-0.00159745	0.287531	293.88
434.0000	-12.3435	-0.00153112	0.284402	293.578
433.5000	-12.0725	-0.00148736	0.281698	293.282
433.0000	-11.7838	-0.00143055	0.278968	292.973
432.5000	-11.5404	-0.00139039	0.276669	292.679
432.0000	-11.3419	-0.00133405	0.274055	292.357
431.5000	-11.0973	-0.00126614	0.271549	292.049
431.0000	-10.7597	-0.00119826	0.268921	291.741
430.5000	-10.5921	-0.0011467	0.26654	291.452
430.0000	-10.3644	-0.00109675	0.2643	291.164
429.5000	-10.4453	-0.00106161	0.262138	290.868
429.0000	-10.1874	-0.00100893	0.259788	290.572
428.5000	-9.96947	-0.000968729	0.257437	290.271
428.0000	-9.87162	-0.000945842	0.255164	289.964
427.5000	-9.85483	-0.000907389	0.253222	289.698
427.0000	-9.85327	-0.000865301	0.251466	289.424
426.5000	-9.73849	-0.000832675	0.249658	289.119
426.0000	-9.4771	-0.000805689	0.247788	288.757
425.5000	-9.45663	-0.000777367	0.246061	288.372
425.0000	-9.17939	-0.000726414	0.244357	287.984
424.5000	-9.0487	-0.000692589	0.242788	287.654
424.0000	-8.77716	-0.000646757	0.241382	287.401
423.5000	-8.71297	-0.000622252	0.239912	287.192
423.0000	-8.35311	-0.000593593	0.238476	286.994
422.5000	-8.31169	-0.000577909	0.237157	286.813
422.0000	-8.19504	-0.000546163	0.235941	286.639
421.5000	-8.03969	-0.000519591	0.234783	286.485
421.0000	-7.88553	-0.000491331	0.233729	286.335
420.5000	-7.97286	-0.000452258	0.232799	286.177
420.0000	-7.72605	-0.000418642	0.231943	286.028
419.5000	-7.27727	-0.000372259	0.23103	285.867
419.0000	-7.11819	-0.00035052	0.229972	285.697
418.5000	-6.99109	-0.000338638	0.229114	285.567
418.0000	-6.85064	-0.000315695	0.228586	285.485
417.5000	-6.59294	-0.000279466	0.227972	285.437
417.0000	-6.27903	-0.000284103	0.227311	285.435
416.5000	-6.4146	-0.000287731	0.226671	285.433
416.0000	-6.25597	-0.000282007	0.225893	285.364
415.5000	-6.1477	-0.000264243	0.225313	285.256
415.0000	-6.3249	-0.000242431	0.224894	285.148
414.5000	-6.30198	-0.000231241	0.224486	285.019
414.0000	-6.14274	-0.000204764	0.224193	284.907
413.5000	-6.04297	-0.000190458	0.223699	284.8
413.0000	-5.72456	-0.000158062	0.223463	284.711
412.5000	-5.6616	-0.000154152	0.223481	284.658
412.0000	-5.55294	-0.000157713	0.223254	284.624
411.5000	-5.58253	-0.000151464	0.223034	284.582
411.0000	-5.55333	-0.000165929	0.222958	284.558
410.5000	-5.49958	-0.000168322	0.223035	284.564
410.0000	-5.50795	-0.000161663	0.223206	284.594
409.5000	-5.31435	-0.00015464	0.22322	284.615
409.0000	-5.32816	-0.000166764	0.223231	284.651
408.5000	-5.34719	-0.000163628	0.223415	284.691
408.0000	-5.20981	-0.000153647	0.223564	284.71
407.5000	-5.2132	-0.000169166	0.223812	284.729
407.0000	-4.98929	-0.000179062	0.224055	284.744
406.5000	-4.80551	-0.000177455	0.224384	284.752
406.0000	-4.75705	-0.000185911	0.224893	284.752
405.5000	-4.78234	-0.000211172	0.225161	284.72
405.0000	-4.7232	-0.000219342	0.22568	284.648
404.5000	-4.74345	-0.000240359	0.225923	284.55
404.0000	-4.64999	-0.000250672	0.226491	284.417
403.5000	-4.57774	-0.000257319	0.227093	284.271
403.0000	-4.46916	-0.000261332	0.227716	284.127
402.5000	-4.73823	-0.000263273	0.22817	283.971
402.0000	-4.57442	-0.000256569	0.228888	283.843
401.5000	-4.58893	-0.000257892	0.229507	283.702
401.0000	-4.50814	-0.000267876	0.230249	283.594
400.5000	-4.46141	-0.00025596	0.23116	283.52
400.0000	-4.27946	-0.00027509	0.232158	283.489
399.5000	-4.37757	-0.000273493	0.233155	283.472
399.0000	-4.24791	-0.000274782	0.234122	283.478
398.5000	-4.19541	-0.000273136	0.234849	283.489
398.0000	-4.21569	-0.000288434	0.235702	283.541
397.5000	-4.13588	-0.000289639	0.236691	283.624
397.0000	-4.16102	-0.000290435	0.237812	283.745
396.5000	-4.09605	-0.000304311	0.238866	283.903
396.0000	-4.2862	-0.00031636	0.239747	284.085
395.5000	-4.03903	-0.000308852	0.240664	284.302
395.0000	-4.11304	-0.000328111	0.241774	284.551
394.5000	-3.93544	-0.000354939	0.242973	284.825
394.0000	-3.60336	-0.00036264	0.244179	285.106
393.5000	-3.35312	-0.00037705	0.24526	285.39
393.0000	-3.50572	-0.000394749	0.246395	285.691
392.5000	-3.26656	-0.000409403	0.247459	285.959
392.0000	-3.02576	-0.000428194	0.248732	286.205
391.5000	-3.04749	-0.000434136	0.249993	286.426
391.0000	-2.73525	-0.000441269	0.251371	286.639
390.5000	-2.59405	-0.000460453	0.252733	286.849
390.0000	-2.49676	-0.00048568	0.254228	287.056
389.5000	-2.41564	-0.000498238	0.255779	287.243
389.0000	-2.03835	-0.000496425	0.257394	287.428
388.5000	-1.91441	-0.000509747	0.259137	287.596
388.0000	-1.63376	-0.000510032	0.26095	287.775
387.5000	-1.45594	-0.000529826	0.262713	287.944
387.0000	-1.28911	-0.000540992	0.264502	288.101
386.5000	-1.24219	-0.000554145	0.266316	288.244
386.0000	-1.03274	-0.000565893	0.268061	288.382
385.5000	-1.01929	-0.000593346	0.269976	288.512
385.0000	-0.811503	-0.000622414	0.271858	288.639
384.5000	-0.602259	-0.000633612	0.273919	288.773
384.0000	-0.591218	-0.000647007	0.275739	288.894
383.5000	-0.508511	-0.000664491	0.277539	289.017
383.0000	-0.243847	-0.00067258	0.27945	289.159
382.5000	-0.301224	-0.000693123	0.281357	289.289
382.0000	-0.254514	-0.000714347	0.283271	289.431
381.5000	-0.141859	-0.000724439	0.285138	289.571
381.0000	-0.0624997	-0.000741666	0.286828	289.709
380.5000	0.068534	-0.000781395	0.288467	289.849
380.0000	0.346848	-0.000791983	0.290168	290.001
379.5000	0.374717	-0.00082321	0.291774	290.141
379.0000	0.707971	-0.000841498	0.293463	290.284
378.5000	0.920255	-0.000867808	0.294713	290.41
378.0000	1.34392	-0.000876288	0.295769	290.529
377.5000	1.33805	-0.000899603	0.297231	290.662
377.0000	1.64692	-0.000919991	0.29849	290.774
376.5000	1.93909	-0.000927144	0.299632	290.876
376.0000	1.84063	-0.000925439	0.300663	290.971
375.5000	1.90838	-0.000945594	0.301935	291.066
375.0000	1.90685	-0.000971761	0.303004	291.153
374.5000	2.03185	-0.00100311	0.303979	291.233
374.0000	2.20011	-0.00101558	0.305129	291.318
373.5000	2.62324	-0.00102738	0.306164	291.396
373.0000	2.77026	-0.00105096	0.307138	291.478
372.5000	2.86781	-0.00108588	0.308128	291.554
372.0000	2.99148	-0.00111015	0.309038	291.638
371.5000	3.23173	-0.00114344	0.310156	291.735
371.0000	3.34493	-0.00115765	0.311152	291.834
370.5000	3.32174	-0.0011725	0.312248	291.945
370.0000	3.33231	-0.00119042	0.313496	292.062
369.5000	3.3795	-0.00121348	0.314937	292.191
369.0000	3.47132	-0.00122043	0.316124	292.313
368.5000	3.45219	-0.00123776	0.317626	292.477
368.0000	3.53823	-0.00126063	0.319299	292.653
367.5000	3.91864	-0.00129463	0.320935	292.826
367.0000	4.14223	-0.00131555	0.322536	293.004
366.5000	4.31708	-0.00135453	0.324072	293.192
366.0000	4.53434	-0.00137086	0.32569	293.392
365.5000	4.70267	-0.00139556	0.327166	293.573
365.0000	4.90304	-0.00140393	0.328879	293.756
364.5000	5.02975	-0.00141411	0.330638	293.937
364.0000	4.90529	-0.0014111	0.332452	294.138
363.5000	5.07729	-0.00143582	0.334106	294.325
363.0000	5.46241	-0.00144627	0.335667	294.513
362.5000	5.56615	-0.00147039	0.337257	294.697
362.0000	5.55265	-0.00149003	0.338808	294.882
361.5000	5.58715	-0.00151257	0.340546	295.076
361.0000	5.76624	-0.0015186	0.342267	295.275
360.5000	6.19892	-0.001523	0.343931	295.472
360.0000	6.51858	-0.00155382	0.345509	295.649
359.5000	6.77639	-0.00155877	0.347253	295.835
359.0000	6.89385	-0.00159223	0.34882	296.015
358.5000	7.23777	-0.00159429	0.350583	296.205
358.0000	7.45539	-0.00161194	0.352399	296.388
357.5000	7.6066	-0.00162213	0.353944	296.572
357.0000	7.61229	-0.00164353	0.355675	296.772
356.5000	7.84628	-0.00166996	0.357157	296.951
356.0000	8.14472	-0.00168876	0.358592	297.133
355.5000	8.42167	-0.00172462	0.360312	297.315
355.0000	8.68136	-0.00172431	0.361937	297.501
354.5000	8.86639	-0.00175162	0.363804	297.701
354.0000	9.30007	-0.00176629	0.365467	297.904
353.5000	9.5352	-0.00178869	0.367312	298.105
353.0000	9.77733	-0.00180865	0.368898	298.297
352.5000	10.2278	-0.00183437	0.370765	298.514
352.0000	10.6148	-0.0018607	0.372648	298.725
351.5000	10.8745	-0.00186278	0.374569	298.943
351.0000	11.1616	-0.00190318	0.37639	299.148
350.5000	11.4201	-0.00191471	0.378111	299.347
350.0000	11.6591	-0.00193223	0.379938	299.564
349.5000	12.0039	-0.00195736	0.381718	299.794
349.0000	12.4923	-0.00197707	0.383726	300.022
348.5000	12.9018	-0.00201038	0.385729	300.248
348.0000	13.0713	-0.00202494	0.387878	300.474
347.5000	13.2074	-0.00206182	0.390041	300.705
347.0000	13.6887	-0.00209083	0.391981	300.921
346.5000	13.8273	-0.00211966	0.394116	301.149
346.0000	14.3678	-0.00214888	0.396249	301.369
345.5000	14.4977	-0.00215993	0.398319	301.587
345.0000	14.9858	-0.00218083	0.400572	301.822
344.5000	15.4913	-0.00221087	0.402845	302.053
344.0000	15.7035	-0.00223906	0.405022	302.27
343.5000	15.8105	-0.00228654	0.406926	302.471
343.0000	16.0482	-0.00229552	0.409046	302.691
342.5000	16.3254	-0.00231493	0.411058	302.904
342.0000	16.8827	-0.00233778	0.413263	303.135
341.5000	17.1029	-0.00237143	0.415363	303.343
341.0000	17.4663	-0.00239596	0.417249	303.53
340.5000	17.8175	-0.002424	0.419275	303.734
340.0000	18.2379	-0.00244851	0.421268	303.949
339.5000	18.805	-0.00248087	0.423254	304.173
339.0000	19.153	-0.00251099	0.425421	304.395
338.5000	19.5668	-0.00254256	0.427425	304.614
338.0000	20.1867	-0.00257314	0.42965	304.848
337.5000	20.6251	-0.00260668	0.432049	305.087
337.0000	21.2229	-0.00264608	0.434166	305.329
336.5000	21.5847	-0.00270179	0.436224	305.556
336.0000	22.0324	-0.00274515	0.438414	305.804
335.5000	22.4562	-0.00276741	0.440464	306.04
335.0000	22.9964	-0.0028064	0.442617	306.281
334.5000	23.3924	-0.00286465	0.444807	306.534
334.0000	23.7101	-0.00290616	0.447303	306.817
333.5000	24.3088	-0.00294881	0.449871	307.115
333.0000	25.0385	-0.00295881	0.452293	307.401
332.5000	25.4204	-0.00300448	0.454862	307.693
332.0000	26.0837	-0.00304176	0.457497	307.983
331.5000	26.5339	-0.00310179	0.460143	308.284
331.0000	26.9179	-0.00314912	0.463048	308.607
330.5000	27.7024	-0.00319279	0.465756	308.909
330.0000	28.1837	-0.00323384	0.46841	309.224
329.5000	28.7239	-0.00329373	0.471233	309.535
329.0000	29.5516	-0.0033306	0.474177	309.862
328.5000	30.0389	-0.00337262	0.477214	310.17
328.0000	30.7258	-0.00341169	0.480052	310.461
327.5000	31.1396	-0.00346374	0.483172	310.761
327.0000	31.853	-0.00350468	0.486251	311.063
326.5000	32.5877	-0.00354487	0.489722	311.421
326.0000	33.2737	-0.00360157	0.492952	311.778
325.5000	34.0255	-0.00363281	0.496	312.115
325.0000	34.6296	-0.00368388	0.499214	312.448
324.5000	35.5142	-0.00373987	0.502713	312.809
324.0000	36.2751	-0.00380057	0.506337	313.193
323.5000	36.8053	-0.00383022	0.509741	313.57
323.0000	37.3075	-0.00386597	0.513079	313.938
322.5000	37.9784	-0.0038777	0.516391	314.307
322.0000	38.6154	-0.00391584	0.519665	314.668
321.5000	39.1783	-0.00395276	0.523078	315.045
321.0000	39.7882	-0.00400354	0.526695	315.442
320.5000	40.4533	-0.00403515	0.530023	315.824
320.0000	41.1	-0.00406469	0.533289	316.199
319.5000	41.696	-0.00408983	0.536599	316.586
319.0000	42.2761	-0.00409793	0.539992	317.01
318.5000	42.7961	-0.00412587	0.54363	317.436
318.0000	43.5285	-0.00414517	0.547211	317.826
317.5000	43.8897	-0.00417015	0.550834	318.199
317.0000	44.5018	-0.00420775	0.554866	318.61
316.5000	44.8986	-0.00423199	0.558401	318.992
316.0000	45.5395	-0.00425686	0.562025	319.408
315.5000	45.9478	-0.00428317	0.565705	319.811
315.0000	46.7035	-0.00428372	0.569963	320.283
314.5000	47.5394	-0.00433423	0.574218	320.761
314.0000	48.1525	-0.0043651	0.578762	321.257
313.5000	48.8672	-0.00439705	0.583183	321.755
313.0000	49.4304	-0.00442324	0.588007	322.297
312.5000	50.0977	-0.00443832	0.592755	322.833
312.0000	50.5338	-0.00444876	0.597734	323.389
311.5000	51.139	-0.00448372	0.603032	323.976
311.0000	51.6735	-0.00453662	0.608562	324.588
310.5000	52.5078	-0.00457512	0.614401	325.246
310.0000	53.2301	-0.00459787	0.620003	325.876
309.5000	54.0075	-0.00462264	0.625711	326.533
309.0000	54.9352	-0.00464351	0.632029	327.256
308.5000	55.5704	-0.00465713	0.638526	328.004
308.0000	56.1671	-0.00470879	0.645118	328.733
307.5000	56.9804	-0.00472975	0.652548	329.561
307.0000	57.5995	-0.0047525	0.659542	330.337
306.5000	58.1398	-0.00480166	0.6669	331.151
306.0000	58.5104	-0.00482687	0.67424	331.956
305.5000	58.8748	-0.00485422	0.681956	332.812
305.0000	59.3304	-0.00488181	0.689509	333.648
304.5000	59.7308	-0.00491056	0.697781	334.556
304.0000	59.7148	-0.00491576	0.706239	335.468
303.5000	59.913	-0.00492109	0.713964	336.344
303.0000	60.0597	-0.00493834	0.722316	337.277
302.5000	60.3094	-0.00492323	0.73079	338.218
302.0000	60.0778	-0.00492549	0.739233	339.162
301.5000	59.8614	-0.00494131	0.747537	340.101
301.0000	59.3897	-0.00493967	0.755798	341.036
300.5000	58.8191	-0.00493775	0.763209	341.873
300.0000	58.1821	-0.0049398	0.771767	342.818
299.5000	57.4725	-0.00491411	0.779645	343.72
299.0000	56.7206	-0.00490264	0.787439	344.603
298.5000	56.0298	-0.00488759	0.795536	345.507
298.0000	55.2076	-0.00484407	0.803109	346.357
297.5000	54.5048	-0.00480621	0.810809	347.218
297.0000	53.7205	-0.00477865	0.817585	347.984
296.5000	52.965	-0.00474474	0.824048	348.715
296.0000	52.2456	-0.0047023	0.830679	349.442
295.5000	51.4721	-0.00468073	0.837545	350.159
295.0000	50.5793	-0.00465536	0.843998	350.846
294.5000	49.6804	-0.00460025	0.850268	351.559
294.0000	48.4047	-0.00453374	0.856746	352.312
293.5000	47.5813	-0.00448121	0.862283	352.964
293.0000	46.9813	-0.00440311	0.86825	353.663
292.5000	45.755	-0.00433867	0.874478	354.392
292.0000	45.0698	-0.00426709	0.880304	355.078
291.5000	44.1382	-0.00421992	0.885988	355.754
291.0000	43.3139	-0.00416489	0.891738	356.447
290.5000	42.4554	-0.00407507	0.897832	357.182
290.0000	41.7513	-0.00400213	0.903465	357.876
289.5000	40.7652	-0.00394447	0.908833	358.539
289.0000	39.8981	-0.00386465	0.914334	359.215
288.5000	39.1334	-0.00375882	0.920425	359.964
288.0000	38.3023	-0.003679	0.926372	360.694
287.5000	37.1732	-0.00359709	0.932416	361.475
287.0000	36.166	-0.00349565	0.938623	362.289
286.5000	35.4337	-0.00340686	0.944773	363.076
286.0000	34.405	-0.00331837	0.951009	363.836
285.5000	33.5572	-0.00325787	0.957362	364.598
285.0000	32.8747	-0.00319442	0.964121	365.411
284.5000	32.3563	-0.00313221	0.970463	366.175
284.0000	31.4129	-0.00304515	0.977359	367.006
283.5000	30.4909	-0.00297593	0.98446	367.88
283.0000	29.5905	-0.00288835	0.991501	368.727
282.5000	28.3737	-0.00278931	0.998991	369.633
282.0000	27.3105	-0.00277415	1.00677	370.579
281.5000	26.6072	-0.00271153	1.01456	371.516
281.0000	25.8803	-0.00264859	1.02258	372.493
280.5000	24.6451	-0.00260324	1.03139	373.564
280.0000	23.7574	-0.00256808	1.04065	374.678
279.5000	22.5663	-0.0024974	1.05026	375.844
279.0000	21.706	-0.00242498	1.05975	377.007
278.5000	21.002	-0.00238976	1.06999	378.271
278.0000	20.2438	-0.00230843	1.08141	379.657
277.5000	19.992	-0.00225875	1.09203	380.968
277.0000	19.6202	-0.00219802	1.10371	382.395
276.5000	19.0806	-0.00217065	1.11593	383.886
276.0000	18.1719	-0.00213476	1.1272	385.267
275.5000	18.4473	-0.00211705	1.14018	386.864
275.0000	18.4589	-0.00210289	1.15366	388.519
274.5000	18.1942	-0.00203786	1.16761	390.247
274.0000	18.9998	-0.00201931	1.18278	392.131
273.5000	18.9631	-0.00195952	1.19716	393.92
273.0000	19.1056	-0.00192709	1.21275	395.877
272.5000	19.8788	-0.00187901	1.22887	397.916
272.0000	21.0057	-0.00184933	1.24546	400.047
271.5000	21.6439	-0.00182889	1.26375	402.394
271.0000	22.4755	-0.00182479	1.28169	404.71
270.5000	23.6758	-0.00182542	1.30053	407.124
270.0000	24.3766	-0.00180508	1.31982	409.636
269.5000	25.3283	-0.0018408	1.33983	412.272
269.0000	26.3202	-0.00180344	1.35948	414.878
268.5000	27.5852	-0.00177279	1.3809	417.734
268.0000	28.9805	-0.00178866	1.40294	420.693
267.5000	32.0933	-0.00170746	1.42563	423.768
267.0000	34.5807	-0.00166843	1.4501	427.106
266.5000	37.1739	-0.00167535	1.47512	430.552
266.0000	39.262	-0.00169795	1.49805	433.74
265.5000	42.5529	-0.00163861	1.52246	437.16
265.0000	45.9584	-0.00167918	1.54837	440.833
264.5000	48.9826	-0.00171163	1.57347	444.413
264.0000	52.9259	-0.00172828	1.59902	448.071
263.5000	58.0107	-0.00163882	1.62607	451.985
263.0000	63.656	-0.00162421	1.65075	455.615
262.5000	68.9755	-0.00166514	1.67845	459.724
262.0000	76.1538	-0.0016474	1.70562	463.776
261.5000	83.1224	-0.00167589	1.73332	467.928
261.0000	89.3006	-0.0017445	1.76033	471.982
260.5000	96.7311	-0.00181185	1.78946	476.396
260.0000	105.016	-0.0018399	1.81954	480.985
259.5000	112.53	-0.00188511	1.8505	485.772
259.0000	118.979	-0.00206799	1.88277	490.749
258.5000	127.777	-0.00202008	1.91596	495.939
258.0000	136.51	-0.00208763	1.95067	501.374
257.5000	144.813	-0.00221658	1.98488	506.746
257.0000	154.1	-0.00229583	2.02241	512.683
256.5000	162.145	-0.00231794	2.05951	518.585
256.0000	169.294	-0.0022529	2.10004	525.077
255.5000	177.598	-0.00228319	2.14201	531.875
255.0000	184.319	-0.0025406	2.1857	538.988
254.5000	187.869	-0.0024989	2.22867	546.04
254.0000	193.324	-0.00252055	2.27277	553.359
253.5000	195.655	-0.00261054	2.32288	561.756
253.0000	197.536	-0.00256685	2.36957	569.662
252.5000	199.517	-0.00260107	2.44057	581.858
252.0000	201.047	-0.0026067	2.50076	592.365
251.5000	199.456	-0.00281566	2.55454	601.867
251.0000	198.055	-0.00279112	2.60976	611.776
250.5000	197.692	-0.00274624	2.66622	622.037
250.0000	193.503	-0.00290456	2.72114	632.138

##### Extended Information
[Comments]
Sample name	15% S-JS after 72 hrs
Comment
User
Division
Company	Labo systeme complexes hors equilibre

[Detailed Information]
Creation date	10/13/2025 3:59 PM

Data array type	Linear data array * 4
Horizontal axis	Wavelength [nm]
Vertical axis(1)	CD [mdeg]
Vertical axis(2)	LD [dOD]
Vertical axis(3)	Abs
Vertical axis(4)	HT [V]
Start	700 nm
End	250 nm
Data interval	0.5 nm
Data points	901     

[Measurement Information]
Instrument name	CD Jasco
Model name	J-1500
Serial No.	A005261638

Detector	PM-539
Detector S/N	A0052PM539
  Lock-in amp.	X mode
  HT volt	Auto

Detector	EXPML-535
Detector S/N	A0001
  Lock-in amp.	X mode
  HT volt	Auto

Accessory	PTC-517
Accessory S/N	A001361646
  Temperature	19.96 C
  Control sonsor	Holder
  Monitor sensor	Holder
  Start Mode	Keep target temperature +/-0.10 deg C while 5 seconds

Measurement date	10/13/2025 3:59 PM

Overload detect	1
Photometric mode	CD, LD, Abs, HT
Measure range	700 - 250 nm
Data pitch	0.5 nm
CD scale	200 mdeg/1.0 dOD
FL scale	200 mdeg/1.0 dOD
D.I.T.	1 sec
Bandwidth	1.00 nm
Start mode	Immediately
Scanning speed	500 nm/min
Baseline correction	Baseline
Shutter control	Auto


