TITLE	2% S-JS 1
DATA TYPE	
ORIGIN	JASCO
OWNER	
DATE	25/09/22
TIME	16:18:00
SPECTROMETER/DATA SYSTEM	
LOCALE	1033
RESOLUTION	
DELTAX	-0.5
XUNITS	NANOMETERS
YUNITS	CD [mdeg]
Y2UNITS	LD [dOD]
Y3UNITS	ABSORBANCE
Y4UNITS	HT [V]
FIRSTX	  700.0000
LASTX	  250.0000
NPOINTS	     901
FIRSTY	     2.52492
MAXY	    70.17090
MINY	    -0.63918
XYDATA
700.0000	2.52492	-0.00137015	0.114171	319.851
699.5000	2.14905	-0.00138044	0.114119	319.304
699.0000	1.98418	-0.00139002	0.114139	318.675
698.5000	1.76635	-0.00140772	0.114322	318.001
698.0000	1.87727	-0.00142583	0.114392	317.312
697.5000	1.6321	-0.00144407	0.114333	316.675
697.0000	1.80314	-0.00144721	0.114538	316.08
696.5000	1.65649	-0.0014939	0.114892	315.581
696.0000	1.64425	-0.00151465	0.115139	315.118
695.5000	1.78837	-0.0015471	0.115569	314.755
695.0000	1.82327	-0.00156592	0.115903	314.477
694.5000	1.77006	-0.00157147	0.115948	314.226
694.0000	1.45667	-0.00159692	0.116015	314.005
693.5000	1.48107	-0.00158837	0.116243	313.826
693.0000	1.51986	-0.00160139	0.116499	313.688
692.5000	1.44697	-0.00160328	0.116778	313.589
692.0000	1.21845	-0.00162823	0.117138	313.558
691.5000	1.67236	-0.00162465	0.117328	313.619
691.0000	1.68867	-0.00162418	0.117661	313.807
690.5000	1.99026	-0.00161548	0.118063	314.102
690.0000	1.99833	-0.00162209	0.118455	314.475
689.5000	2.29639	-0.00162517	0.118812	314.881
689.0000	2.46766	-0.00163232	0.118963	315.27
688.5000	2.43038	-0.00161903	0.119065	315.636
688.0000	2.7129	-0.00159695	0.119196	315.977
687.5000	2.81469	-0.0015803	0.119263	316.296
687.0000	2.80308	-0.00157938	0.119246	316.577
686.5000	2.87782	-0.00158249	0.119559	316.86
686.0000	2.88997	-0.00159953	0.119686	317.123
685.5000	2.92035	-0.00159701	0.119915	317.401
685.0000	2.599	-0.00163386	0.120118	317.692
684.5000	2.77307	-0.00163494	0.120551	318.017
684.0000	3.01904	-0.0016452	0.120901	318.331
683.5000	3.15396	-0.00164406	0.121153	318.617
683.0000	3.14658	-0.00161891	0.12133	318.854
682.5000	3.04756	-0.00164129	0.1213	318.997
682.0000	2.65599	-0.00166652	0.121297	319.061
681.5000	2.33307	-0.00167756	0.121558	319.073
681.0000	2.46388	-0.00170246	0.121858	319.061
680.5000	2.77781	-0.00170672	0.122037	319.036
680.0000	2.87994	-0.00171854	0.122127	319.004
679.5000	2.80638	-0.00171625	0.122281	318.977
679.0000	2.88075	-0.00172258	0.122481	318.954
678.5000	2.53819	-0.00175335	0.122808	318.945
678.0000	2.68848	-0.00172917	0.123102	318.943
677.5000	2.74117	-0.00175335	0.123426	318.958
677.0000	2.74797	-0.00174758	0.123626	318.98
676.5000	2.54479	-0.00175258	0.123652	319.004
676.0000	2.1012	-0.00177972	0.123685	319.031
675.5000	2.233	-0.00177176	0.123642	319.066
675.0000	2.02205	-0.00182858	0.123789	319.112
674.5000	2.03233	-0.00185942	0.124062	319.177
674.0000	2.4067	-0.00187085	0.124556	319.267
673.5000	2.52911	-0.00183779	0.124742	319.361
673.0000	2.39263	-0.00186628	0.124881	319.447
672.5000	2.1374	-0.00184927	0.125124	319.548
672.0000	2.23922	-0.00183834	0.125451	319.655
671.5000	2.01986	-0.0018604	0.12584	319.764
671.0000	1.80374	-0.00189083	0.126269	319.892
670.5000	1.8251	-0.00189223	0.126524	320.007
670.0000	1.83452	-0.00191448	0.12676	320.127
669.5000	1.96259	-0.00191157	0.126928	320.241
669.0000	2.02837	-0.00192482	0.127212	320.373
668.5000	2.0544	-0.00195305	0.127463	320.505
668.0000	2.294	-0.00197591	0.127834	320.656
667.5000	2.53275	-0.00195637	0.128294	320.809
667.0000	2.6342	-0.00197347	0.128549	320.953
666.5000	2.34192	-0.00195519	0.128815	321.075
666.0000	2.36591	-0.00193612	0.1292	321.199
665.5000	2.53489	-0.00198537	0.129356	321.287
665.0000	2.17167	-0.00197212	0.129794	321.379
664.5000	2.34143	-0.0019866	0.130035	321.441
664.0000	2.37917	-0.00200353	0.130242	321.483
663.5000	2.51165	-0.00199989	0.130404	321.517
663.0000	2.58682	-0.00199154	0.130561	321.527
662.5000	2.80749	-0.00199637	0.130908	321.532
662.0000	2.91721	-0.00198332	0.131212	321.517
661.5000	2.96817	-0.00199619	0.131333	321.47
661.0000	2.80689	-0.00197392	0.131509	321.402
660.5000	2.91923	-0.00196235	0.13173	321.311
660.0000	3.00458	-0.00195436	0.131914	321.173
659.5000	2.8539	-0.00198368	0.13211	321.016
659.0000	3.16502	-0.00197654	0.132453	320.814
658.5000	3.31	-0.00200008	0.132858	320.592
658.0000	3.20354	-0.00201264	0.132974	320.346
657.5000	3.62744	-0.00198308	0.133157	320.093
657.0000	3.76425	-0.00200306	0.133334	319.863
656.5000	3.983	-0.00201998	0.133755	319.641
656.0000	3.98609	-0.00203252	0.134109	319.455
655.5000	3.82199	-0.00204224	0.134453	319.292
655.0000	3.76673	-0.00205954	0.134924	319.161
654.5000	3.57278	-0.00209087	0.135362	319.065
654.0000	3.75593	-0.00209511	0.135931	319.007
653.5000	3.78649	-0.00209772	0.136367	318.97
653.0000	3.62732	-0.00211282	0.136766	318.964
652.5000	3.8078	-0.00212817	0.137212	318.988
652.0000	3.76579	-0.00214803	0.137627	319.042
651.5000	3.77663	-0.00215196	0.138097	319.149
651.0000	3.73119	-0.00217563	0.138654	319.298
650.5000	3.53817	-0.00217404	0.139096	319.48
650.0000	3.64184	-0.00218806	0.139748	319.689
649.5000	3.70833	-0.00220815	0.140229	319.907
649.0000	3.37576	-0.00222326	0.140952	320.119
648.5000	3.38455	-0.00221605	0.141365	320.325
648.0000	3.05038	-0.00223673	0.141914	320.513
647.5000	3.33138	-0.00224232	0.142375	320.676
647.0000	3.57825	-0.00227119	0.142741	320.799
646.5000	3.72616	-0.00227839	0.142929	320.885
646.0000	3.85514	-0.00228805	0.1433	320.939
645.5000	3.65225	-0.00230887	0.143808	320.968
645.0000	3.79137	-0.002336	0.144427	320.983
644.5000	3.80119	-0.00235912	0.144934	320.968
644.0000	3.94892	-0.00237105	0.14544	320.941
643.5000	3.5787	-0.00238181	0.145989	320.897
643.0000	3.95176	-0.0023982	0.146552	320.841
642.5000	4.01682	-0.00241462	0.147273	320.771
642.0000	4.24184	-0.00244454	0.147762	320.687
641.5000	4.31656	-0.00247787	0.148478	320.607
641.0000	4.40171	-0.00248934	0.14914	320.514
640.5000	4.46681	-0.00252649	0.149723	320.436
640.0000	4.54532	-0.00257928	0.150325	320.358
639.5000	5.058	-0.00260521	0.151091	320.261
639.0000	5.11959	-0.00259409	0.151998	320.188
638.5000	5.11136	-0.00259484	0.152928	320.119
638.0000	5.1309	-0.00262639	0.15371	320.057
637.5000	5.20064	-0.00266538	0.154413	320.005
637.0000	5.25725	-0.00268684	0.155042	319.953
636.5000	5.24856	-0.00271727	0.156035	319.936
636.0000	5.40251	-0.00274561	0.156735	319.911
635.5000	5.72838	-0.00277046	0.1575	319.901
635.0000	5.88214	-0.00278046	0.158173	319.893
634.5000	6.06512	-0.00279465	0.158813	319.887
634.0000	5.88889	-0.00280353	0.159423	319.884
633.5000	5.89703	-0.00281682	0.160008	319.88
633.0000	5.81535	-0.00283692	0.16063	319.87
632.5000	5.73848	-0.00289015	0.161448	319.855
632.0000	5.87629	-0.00290449	0.162331	319.845
631.5000	6.17937	-0.00290845	0.163218	319.837
631.0000	6.05212	-0.00294873	0.16395	319.815
630.5000	5.87844	-0.00296927	0.164753	319.788
630.0000	5.99218	-0.00297975	0.165588	319.763
629.5000	5.93765	-0.00299956	0.166677	319.739
629.0000	6.13313	-0.0030195	0.167597	319.718
628.5000	6.19975	-0.00303249	0.16852	319.702
628.0000	6.43569	-0.00304982	0.169383	319.684
627.5000	6.07173	-0.00307831	0.170383	319.685
627.0000	6.00023	-0.00310727	0.171392	319.693
626.5000	5.99058	-0.00314047	0.172473	319.729
626.0000	6.00329	-0.00316534	0.173661	319.773
625.5000	6.22648	-0.00318544	0.17485	319.836
625.0000	6.36535	-0.00323103	0.175957	319.915
624.5000	6.49589	-0.00325806	0.177199	320.027
624.0000	6.91001	-0.00328372	0.178313	320.153
623.5000	6.79419	-0.00330099	0.179461	320.297
623.0000	6.44842	-0.00334993	0.180791	320.459
622.5000	6.5177	-0.00337831	0.182094	320.633
622.0000	6.43489	-0.00343961	0.183251	320.808
621.5000	6.37816	-0.00349074	0.184652	321.013
621.0000	6.82046	-0.00352397	0.185955	321.231
620.5000	6.75802	-0.00356223	0.187359	321.453
620.0000	6.71375	-0.00360482	0.188724	321.683
619.5000	6.93201	-0.00365883	0.190507	321.966
619.0000	7.37128	-0.00371271	0.192326	322.265
618.5000	7.35803	-0.00376946	0.194235	322.581
618.0000	7.65348	-0.00381632	0.195965	322.872
617.5000	7.81316	-0.00384473	0.197857	323.176
617.0000	7.70486	-0.00387907	0.199772	323.476
616.5000	7.84564	-0.00391922	0.201636	323.759
616.0000	7.78113	-0.003958	0.203505	324.025
615.5000	7.74924	-0.00401174	0.205266	324.284
615.0000	7.97402	-0.00405755	0.207003	324.541
614.5000	8.34809	-0.00408975	0.208765	324.8
614.0000	8.49978	-0.00412748	0.210719	325.072
613.5000	8.94758	-0.00418236	0.212783	325.346
613.0000	9.00777	-0.00424421	0.214816	325.618
612.5000	8.96655	-0.00429146	0.216928	325.881
612.0000	9.09641	-0.00432919	0.219152	326.155
611.5000	9.50698	-0.00438955	0.221336	326.412
611.0000	9.46251	-0.00444022	0.223691	326.676
610.5000	9.95466	-0.00450432	0.226169	326.94
610.0000	9.68994	-0.00455557	0.228397	327.179
609.5000	10.147	-0.00461689	0.230673	327.426
609.0000	10.248	-0.00468344	0.232984	327.665
608.5000	10.69	-0.00475484	0.235648	327.928
608.0000	10.966	-0.00482161	0.238337	328.178
607.5000	11.3177	-0.00489599	0.24119	328.447
607.0000	11.4918	-0.0049564	0.244286	328.738
606.5000	11.3648	-0.00502846	0.247646	329.036
606.0000	11.4702	-0.00512081	0.250774	329.313
605.5000	11.895	-0.00519543	0.253955	329.582
605.0000	11.9784	-0.00526394	0.257456	329.875
604.5000	12.2171	-0.00534274	0.260975	330.168
604.0000	12.3068	-0.00543919	0.264551	330.464
603.5000	12.9608	-0.00553022	0.268197	330.772
603.0000	13.0397	-0.00561842	0.271817	331.067
602.5000	13.3508	-0.00570887	0.275688	331.383
602.0000	13.7994	-0.00578167	0.279429	331.684
601.5000	14.5841	-0.00589492	0.283864	332.038
601.0000	15.0087	-0.00600027	0.288428	332.399
600.5000	15.6237	-0.00612236	0.293324	332.774
600.0000	15.8968	-0.00623717	0.298309	333.142
599.5000	16.0679	-0.00634919	0.303358	333.518
599.0000	16.6845	-0.0064785	0.308761	333.906
598.5000	17.203	-0.00660563	0.314321	334.298
598.0000	18.19	-0.00673396	0.319959	334.707
597.5000	18.6936	-0.00685514	0.325829	335.135
597.0000	19.1816	-0.00698016	0.331892	335.587
596.5000	19.6789	-0.00712195	0.338024	336.029
596.0000	20.5927	-0.00724	0.344253	336.496
595.5000	20.8603	-0.00739451	0.350954	336.994
595.0000	21.4943	-0.0075424	0.357727	337.475
594.5000	22.2497	-0.00771467	0.365086	338.03
594.0000	23.0003	-0.00788509	0.373267	338.65
593.5000	23.8103	-0.00806385	0.3813	339.248
593.0000	24.5326	-0.00825318	0.389606	339.886
592.5000	25.6762	-0.00841963	0.398118	340.575
592.0000	26.1713	-0.00858916	0.406461	341.293
591.5000	27.0567	-0.00877903	0.414721	341.983
591.0000	28.0421	-0.00893345	0.423565	342.741
590.5000	28.5663	-0.00913207	0.432352	343.531
590.0000	29.0895	-0.00930821	0.441878	344.382
589.5000	30.1408	-0.00946471	0.451557	345.259
589.0000	30.9615	-0.00965318	0.461502	346.17
588.5000	32.2276	-0.00985243	0.472125	347.147
588.0000	32.9357	-0.0100505	0.483138	348.178
587.5000	33.823	-0.0102836	0.494379	349.243
587.0000	35.1673	-0.0104909	0.505969	350.384
586.5000	35.9819	-0.01068	0.517315	351.476
586.0000	37.0617	-0.010876	0.528637	352.579
585.5000	37.7148	-0.0110661	0.539555	353.673
585.0000	38.3609	-0.0112252	0.551243	354.825
584.5000	39.2073	-0.0113798	0.562281	355.922
584.0000	40.0706	-0.0115725	0.57406	357.084
583.5000	41.2933	-0.0117619	0.585929	358.258
583.0000	42.2841	-0.0119343	0.598384	359.504
582.5000	43.2697	-0.0121374	0.610956	360.757
582.0000	44.41	-0.0123321	0.623145	361.955
581.5000	45.4515	-0.012539	0.635262	363.172
581.0000	45.9133	-0.0127395	0.647286	364.37
580.5000	46.7143	-0.0128961	0.658534	365.514
580.0000	47.7973	-0.0130518	0.669608	366.61
579.5000	48.3535	-0.0131928	0.680156	367.657
579.0000	49.1628	-0.0133286	0.69033	368.657
578.5000	49.1844	-0.0134608	0.699938	369.592
578.0000	49.6367	-0.0135725	0.709233	370.498
577.5000	49.7755	-0.0136748	0.718551	371.389
577.0000	49.9424	-0.0137849	0.726793	372.161
576.5000	50.2459	-0.0139263	0.734897	372.925
576.0000	50.2545	-0.0140115	0.741976	373.591
575.5000	50.5758	-0.014062	0.748833	374.2
575.0000	50.2924	-0.0141366	0.754273	374.684
574.5000	50.2674	-0.0141615	0.759324	375.129
574.0000	50.4172	-0.0141864	0.763642	375.489
573.5000	50.2757	-0.0142296	0.767535	375.787
573.0000	50.7417	-0.0142276	0.770911	376.029
572.5000	50.5402	-0.0142552	0.773562	376.171
572.0000	50.3571	-0.0142503	0.775716	376.262
571.5000	50.2642	-0.0142359	0.777256	376.298
571.0000	50.0416	-0.0142261	0.778352	376.246
570.5000	50.1183	-0.0141843	0.778845	376.151
570.0000	49.8206	-0.0141448	0.778797	376.016
569.5000	49.8725	-0.0141152	0.778076	375.802
569.0000	49.6853	-0.0141048	0.776967	375.53
568.5000	49.3174	-0.0140251	0.775779	375.264
568.0000	49.2254	-0.0139772	0.774192	374.906
567.5000	49.0655	-0.0139114	0.772319	374.515
567.0000	49.0336	-0.0138366	0.770253	374.139
566.5000	49.1932	-0.0137941	0.767988	373.714
566.0000	49.071	-0.0137453	0.765697	373.28
565.5000	48.6	-0.013711	0.763182	372.85
565.0000	48.5338	-0.0136251	0.76069	372.386
564.5000	48.0564	-0.013573	0.758416	371.963
564.0000	47.8182	-0.0135414	0.75618	371.546
563.5000	47.3739	-0.0134757	0.754192	371.14
563.0000	47.2617	-0.0134168	0.752108	370.746
562.5000	46.9228	-0.0133734	0.750382	370.378
562.0000	47.1265	-0.0133456	0.748865	370.034
561.5000	46.9544	-0.0133554	0.74751	369.681
561.0000	47.2065	-0.0133223	0.746469	369.361
560.5000	47.2655	-0.0133181	0.745711	369.088
560.0000	47.5658	-0.0133452	0.745127	368.87
559.5000	47.5894	-0.0133603	0.745159	368.701
559.0000	47.4598	-0.0133752	0.74559	368.591
558.5000	47.6506	-0.0134005	0.746433	368.513
558.0000	48.0789	-0.0134071	0.747754	368.497
557.5000	48.2389	-0.0134512	0.749637	368.532
557.0000	48.8142	-0.013503	0.751937	368.626
556.5000	48.8919	-0.0135498	0.754589	368.768
556.0000	49.6939	-0.0135765	0.757856	368.984
555.5000	50.32	-0.0136503	0.761797	369.274
555.0000	50.485	-0.0137315	0.766347	369.62
554.5000	51.4085	-0.0138356	0.771416	370.031
554.0000	51.8337	-0.0139586	0.777038	370.505
553.5000	52.5971	-0.0140439	0.782721	370.963
553.0000	53.0295	-0.0141491	0.788874	371.515
552.5000	53.5509	-0.0142264	0.795472	372.128
552.0000	54.477	-0.0143654	0.803036	372.805
551.5000	55.1398	-0.0144517	0.810548	373.494
551.0000	55.6677	-0.0146122	0.819229	374.31
550.5000	56.8336	-0.014743	0.82809	375.142
550.0000	57.3491	-0.0148796	0.837919	376.089
549.5000	58.1898	-0.0150044	0.847692	377.043
549.0000	59.0939	-0.0151455	0.858032	378.06
548.5000	59.7541	-0.0152759	0.868816	379.148
548.0000	60.4046	-0.015462	0.88039	380.307
547.5000	61.035	-0.0156478	0.891927	381.476
547.0000	61.9454	-0.0158105	0.904124	382.713
546.5000	63.0837	-0.015995	0.915986	383.959
546.0000	64.1347	-0.016084	0.928209	385.252
545.5000	65.3988	-0.0162121	0.940442	386.541
545.0000	66.0169	-0.0163755	0.952137	387.815
544.5000	67.2224	-0.0165233	0.964631	389.134
544.0000	67.5201	-0.0166998	0.977135	390.475
543.5000	68.3811	-0.0168501	0.989743	391.82
543.0000	68.7388	-0.0169646	1.00206	393.142
542.5000	69.2317	-0.0170703	1.01443	394.456
542.0000	69.5292	-0.0172323	1.02673	395.759
541.5000	69.7565	-0.0174042	1.03889	397.072
541.0000	69.5138	-0.0175162	1.05043	398.32
540.5000	70.0478	-0.0176568	1.0621	399.557
540.0000	70.1709	-0.0177697	1.07364	400.746
539.5000	69.9631	-0.0178619	1.0843	401.87
539.0000	70.13	-0.0179252	1.09496	402.999
538.5000	69.8846	-0.0180456	1.10501	404.054
538.0000	69.3791	-0.018123	1.11391	404.962
537.5000	68.414	-0.0182336	1.12259	405.835
537.0000	67.7261	-0.0183282	1.13076	406.64
536.5000	67.1861	-0.0183418	1.13788	407.318
536.0000	66.7931	-0.0183997	1.14466	407.963
535.5000	65.7236	-0.0184128	1.15047	408.498
535.0000	65.1513	-0.0185063	1.15571	408.963
534.5000	64.7448	-0.0185065	1.16018	409.309
534.0000	64.1337	-0.0184678	1.16398	409.612
533.5000	63.6888	-0.018461	1.16719	409.829
533.0000	63.2183	-0.0184724	1.16973	409.957
532.5000	61.8636	-0.0184716	1.17179	410.04
532.0000	60.9203	-0.0184548	1.1732	410.053
531.5000	60.1665	-0.0183997	1.17404	410
531.0000	59.1521	-0.0183908	1.17437	409.836
530.5000	58.1682	-0.0183362	1.1742	409.624
530.0000	57.2056	-0.0182548	1.17397	409.368
529.5000	56.0991	-0.0182445	1.17305	409.082
529.0000	55.2495	-0.0181537	1.17199	408.759
528.5000	54.6804	-0.0180498	1.17071	408.417
528.0000	53.5681	-0.0180217	1.16914	408.075
527.5000	52.2425	-0.0179669	1.1673	407.662
527.0000	51.2835	-0.0179142	1.16521	407.192
526.5000	50.3369	-0.0178049	1.1632	406.746
526.0000	49.3063	-0.0177706	1.1607	406.258
525.5000	48.6451	-0.0176969	1.15823	405.754
525.0000	47.6441	-0.0176164	1.15566	405.265
524.5000	46.7921	-0.0175385	1.15344	404.804
524.0000	46.3959	-0.0174726	1.15124	404.352
523.5000	46.2573	-0.0174039	1.14919	403.918
523.0000	45.5843	-0.0173626	1.14737	403.507
522.5000	44.8028	-0.0173229	1.14581	403.148
522.0000	44.1632	-0.0172785	1.14422	402.795
521.5000	43.9846	-0.017244	1.14277	402.459
521.0000	44.0073	-0.017174	1.1418	402.147
520.5000	43.3425	-0.0171544	1.14102	401.869
520.0000	42.942	-0.0171619	1.14064	401.621
519.5000	42.2059	-0.0171068	1.14036	401.375
519.0000	42.2232	-0.0170491	1.14035	401.18
518.5000	41.9557	-0.0170326	1.14045	401.042
518.0000	41.9983	-0.016954	1.14078	400.935
517.5000	41.0612	-0.0169532	1.14138	400.86
517.0000	40.714	-0.0169176	1.14229	400.813
516.5000	39.8864	-0.0169291	1.14337	400.792
516.0000	39.3713	-0.0169282	1.14448	400.78
515.5000	38.2466	-0.0169484	1.14577	400.814
515.0000	37.3917	-0.0169673	1.14709	400.827
514.5000	37.1434	-0.0169712	1.14857	400.873
514.0000	36.8475	-0.0169471	1.15	400.887
513.5000	36.6881	-0.0169252	1.15157	400.913
513.0000	36.1841	-0.016874	1.15295	400.941
512.5000	35.2944	-0.0168808	1.15437	400.986
512.0000	34.2996	-0.0168368	1.15555	401.011
511.5000	34.2341	-0.0168022	1.15638	401.013
511.0000	33.3476	-0.0168169	1.15709	400.97
510.5000	32.1451	-0.0168095	1.15752	400.877
510.0000	31.6942	-0.0167741	1.1577	400.724
509.5000	30.3874	-0.0167662	1.15754	400.493
509.0000	29.4289	-0.0167533	1.15715	400.223
508.5000	28.7761	-0.0166919	1.15604	399.916
508.0000	27.8225	-0.0166507	1.15474	399.588
507.5000	27.3995	-0.0166058	1.15286	399.214
507.0000	26.6281	-0.0165157	1.15046	398.797
506.5000	26.1452	-0.016475	1.14767	398.327
506.0000	25.2392	-0.0164195	1.14466	397.854
505.5000	24.5492	-0.0163452	1.14108	397.292
505.0000	23.2289	-0.0163124	1.13702	396.681
504.5000	21.7364	-0.0162236	1.13203	395.931
504.0000	20.9976	-0.016127	1.12664	395.126
503.5000	19.8508	-0.0160407	1.12058	394.233
503.0000	19.1061	-0.0159229	1.11366	393.232
502.5000	18.8927	-0.0158378	1.10695	392.274
502.0000	17.6992	-0.015726	1.09948	391.224
501.5000	16.9617	-0.0156454	1.09179	390.142
501.0000	16.1303	-0.0155372	1.08328	388.923
500.5000	15.4808	-0.0154081	1.07429	387.575
500.0000	14.3235	-0.0152623	1.06472	386.04
499.5000	13.4372	-0.0151597	1.05456	384.319
499.0000	12.2726	-0.015035	1.04357	382.342
498.5000	11.1334	-0.0148832	1.03289	380.336
498.0000	10.4242	-0.0147668	1.02195	378.323
497.5000	9.27798	-0.0145897	1.01027	376.325
497.0000	8.42975	-0.0144311	0.99888	374.604
496.5000	8.10808	-0.0142782	0.986763	372.953
496.0000	7.28756	-0.0141616	0.975202	371.439
495.5000	6.90213	-0.0139927	0.962915	369.87
495.0000	6.15359	-0.0138631	0.951137	368.382
494.5000	5.35596	-0.0137142	0.93937	366.916
494.0000	4.72904	-0.0135528	0.928102	365.533
493.5000	4.61368	-0.0133675	0.916404	364.101
493.0000	3.88039	-0.0132118	0.905393	362.797
492.5000	3.54811	-0.013049	0.89397	361.479
492.0000	3.09472	-0.0128974	0.881794	360.105
491.5000	2.96451	-0.0127042	0.870627	358.885
491.0000	2.7835	-0.0125067	0.859557	357.756
490.5000	2.73848	-0.0123506	0.848587	356.678
490.0000	2.56851	-0.0121798	0.837716	355.593
489.5000	2.32794	-0.0120275	0.827436	354.422
489.0000	2.06266	-0.0119042	0.816663	352.958
488.5000	1.83093	-0.0117628	0.806737	351.43
488.0000	1.74388	-0.0116242	0.796789	349.803
487.5000	1.79063	-0.0114567	0.78702	348.122
487.0000	1.44738	-0.011315	0.77792	346.536
486.5000	1.46859	-0.0111483	0.768578	345.015
486.0000	1.39368	-0.0110311	0.759989	343.772
485.5000	1.37355	-0.0109154	0.751666	342.683
485.0000	1.45361	-0.0108013	0.743269	341.642
484.5000	1.51819	-0.0106522	0.735005	340.667
484.0000	1.53908	-0.0105279	0.726325	339.703
483.5000	1.52007	-0.0104019	0.718247	338.854
483.0000	1.38789	-0.0102676	0.710024	338.041
482.5000	1.30356	-0.0101727	0.702796	337.369
482.0000	1.1052	-0.0100569	0.695804	336.737
481.5000	1.04876	-0.00995558	0.68856	336.123
481.0000	1.0576	-0.00986239	0.681996	335.558
480.5000	0.829424	-0.00975235	0.675287	334.938
480.0000	0.732522	-0.00965826	0.668125	334.026
479.5000	0.583127	-0.00956187	0.661014	332.835
479.0000	0.520022	-0.00948379	0.654514	331.68
478.5000	0.567642	-0.00937847	0.648801	330.874
478.0000	0.449464	-0.00929878	0.642649	330.152
477.5000	0.269219	-0.00920138	0.636471	329.35
477.0000	0.212915	-0.0091079	0.629992	328.305
476.5000	0.218056	-0.00898847	0.622524	326.885
476.0000	0.442174	-0.00887571	0.615305	325.357
475.5000	0.302536	-0.00875627	0.608075	323.691
475.0000	0.175804	-0.00866887	0.600774	321.878
474.5000	0.269991	-0.00854289	0.593607	319.956
474.0000	0.248196	-0.00844329	0.586671	317.909
473.5000	0.19842	-0.00832646	0.579134	315.79
473.0000	0.296707	-0.00818095	0.571898	313.99
472.5000	0.149589	-0.00805905	0.564459	312.595
472.0000	0.352171	-0.00792824	0.557396	311.678
471.5000	0.373817	-0.0078074	0.550279	311.21
471.0000	0.306434	-0.00770212	0.544104	310.974
470.5000	0.14523	-0.0076165	0.537401	310.544
470.0000	0.206077	-0.00752117	0.530937	309.799
469.5000	-0.0353877	-0.00738687	0.523989	308.766
469.0000	0.0126368	-0.00725963	0.516527	307.622
468.5000	0.115257	-0.00713298	0.509228	306.624
468.0000	-0.224733	-0.00701832	0.501959	305.886
467.5000	-0.523573	-0.00690204	0.495209	305.473
467.0000	-0.224096	-0.0067767	0.48891	305.292
466.5000	-0.393203	-0.00666361	0.482719	305.343
466.0000	-0.38929	-0.00655119	0.476171	305.62
465.5000	-0.560721	-0.00644058	0.469421	306.044
465.0000	-0.639183	-0.00631813	0.462314	306.335
464.5000	-0.559194	-0.00619501	0.454783	306.145
464.0000	-0.330416	-0.00608473	0.447765	305.63
463.5000	-0.244595	-0.00596402	0.441178	305.05
463.0000	-0.0928736	-0.00583933	0.434869	304.495
462.5000	-0.175959	-0.00572129	0.428565	304.049
462.0000	-0.230408	-0.00560524	0.422185	303.757
461.5000	-0.126148	-0.00550014	0.416274	303.632
461.0000	-0.237112	-0.00541192	0.410443	303.621
460.5000	-0.267479	-0.00530949	0.40422	303.631
460.0000	-0.186083	-0.00520467	0.398303	303.563
459.5000	-0.114444	-0.00512346	0.39276	303.381
459.0000	-0.353907	-0.00502911	0.3869	302.974
458.5000	-0.310249	-0.00493484	0.381493	302.377
458.0000	-0.297006	-0.00485382	0.376423	301.707
457.5000	-0.0770181	-0.00475542	0.371288	301.12
457.0000	-0.0573696	-0.00465545	0.365997	300.588
456.5000	-0.0110426	-0.00456458	0.360821	299.91
456.0000	-0.0552596	-0.0044718	0.355552	299.068
455.5000	-0.151078	-0.0043753	0.350653	298.299
455.0000	-0.221121	-0.00428178	0.345989	297.852
454.5000	-0.189661	-0.00420285	0.341249	297.556
454.0000	-0.14478	-0.00412294	0.336236	297.229
453.5000	0.00168767	-0.00404974	0.331589	296.884
453.0000	0.11109	-0.00396804	0.327354	296.538
452.5000	0.102746	-0.0038893	0.323256	296.189
452.0000	0.440139	-0.00380264	0.319003	295.82
451.5000	0.298208	-0.00374059	0.314586	295.418
451.0000	0.209107	-0.00365899	0.310438	295.053
450.5000	0.406347	-0.00357708	0.306406	294.825
450.0000	0.59207	-0.00350879	0.302549	294.747
449.5000	0.528501	-0.00344027	0.298755	294.655
449.0000	0.427671	-0.00338688	0.295054	294.429
448.5000	0.272931	-0.00333425	0.291371	294.233
448.0000	0.00992607	-0.0032827	0.288015	294.323
447.5000	0.215151	-0.00320635	0.284566	294.536
447.0000	0.243215	-0.00316458	0.280851	294.544
446.5000	0.345256	-0.00310054	0.277411	294.28
446.0000	0.405661	-0.00303151	0.273839	293.873
445.5000	0.390418	-0.00295817	0.270239	293.422
445.0000	0.454588	-0.00288597	0.266674	292.913
444.5000	0.502568	-0.00282376	0.263027	292.371
444.0000	0.477198	-0.00276345	0.259556	291.854
443.5000	0.325012	-0.00271199	0.256342	291.373
443.0000	0.383959	-0.0026529	0.253297	290.983
442.5000	0.429678	-0.00258484	0.25035	290.626
442.0000	0.500828	-0.00253253	0.247681	290.327
441.5000	0.382826	-0.00246124	0.244696	289.997
441.0000	0.326638	-0.00240797	0.241746	289.684
440.5000	0.448498	-0.0023513	0.238957	289.388
440.0000	0.520461	-0.00228177	0.236287	289.108
439.5000	0.528404	-0.00220933	0.233402	288.818
439.0000	0.549741	-0.0021429	0.230109	288.496
438.5000	0.654712	-0.00207046	0.226593	288.151
438.0000	0.781151	-0.00202141	0.223131	287.826
437.5000	0.982667	-0.00194903	0.220156	287.547
437.0000	0.851195	-0.00191115	0.21718	287.288
436.5000	0.829574	-0.00187474	0.214448	287.105
436.0000	0.941067	-0.00181827	0.212088	286.954
435.5000	0.879169	-0.00176002	0.209158	286.769
435.0000	1.11541	-0.00169775	0.206489	286.55
434.5000	1.16243	-0.00166325	0.2039	286.299
434.0000	1.3663	-0.00161411	0.201222	286.027
433.5000	1.23528	-0.00158451	0.199032	285.777
433.0000	1.2498	-0.00156336	0.196757	285.516
432.5000	1.27473	-0.00150656	0.194476	285.259
432.0000	1.50629	-0.0014738	0.19209	284.979
431.5000	1.66852	-0.00142094	0.189689	284.696
431.0000	1.71345	-0.00137721	0.187592	284.432
430.5000	1.51625	-0.00133723	0.185474	284.169
430.0000	1.66567	-0.00130186	0.183658	283.928
429.5000	1.51808	-0.00125064	0.18173	283.662
429.0000	1.36307	-0.00122461	0.179563	283.379
428.5000	1.50355	-0.00117273	0.17761	283.116
428.0000	1.53124	-0.00111798	0.175742	282.847
427.5000	1.6778	-0.00109266	0.173882	282.594
427.0000	1.53356	-0.0010816	0.172269	282.354
426.5000	1.32534	-0.00105098	0.170565	282.079
426.0000	1.45253	-0.00101897	0.169009	281.774
425.5000	1.35073	-0.00099049	0.167373	281.421
425.0000	1.32501	-0.000946566	0.165804	281.055
424.5000	1.29321	-0.000905288	0.164255	280.734
424.0000	1.34246	-0.000887508	0.163017	280.505
423.5000	1.33921	-0.000843283	0.161758	280.322
423.0000	1.30872	-0.000812815	0.160368	280.15
422.5000	1.4949	-0.00078773	0.158931	279.988
422.0000	1.57689	-0.000756807	0.157606	279.818
421.5000	1.50657	-0.000725957	0.156406	279.669
421.0000	1.54638	-0.000714992	0.155311	279.539
420.5000	1.62301	-0.0006875	0.154447	279.419
420.0000	1.53989	-0.000670305	0.153416	279.281
419.5000	1.6337	-0.000636407	0.152309	279.135
419.0000	1.70586	-0.000618692	0.151402	278.997
418.5000	1.6754	-0.000592704	0.15064	278.884
418.0000	1.7374	-0.000556062	0.149913	278.805
417.5000	1.74017	-0.000525719	0.149294	278.771
417.0000	1.95948	-0.000509374	0.14855	278.777
416.5000	1.99384	-0.000494499	0.147962	278.794
416.0000	2.07646	-0.00046745	0.14728	278.746
415.5000	1.99956	-0.000474888	0.146535	278.651
415.0000	1.85534	-0.000468522	0.146102	278.552
414.5000	1.87049	-0.000456551	0.145849	278.433
414.0000	1.79058	-0.000434233	0.145332	278.327
413.5000	1.58414	-0.000415885	0.144754	278.226
413.0000	1.45934	-0.000403021	0.14458	278.145
412.5000	1.39958	-0.000401553	0.144248	278.086
412.0000	1.44931	-0.000380685	0.144033	278.029
411.5000	1.47526	-0.000379527	0.143659	277.977
411.0000	1.08439	-0.000395569	0.143605	277.956
410.5000	1.16156	-0.000373197	0.143558	277.947
410.0000	1.32695	-0.00036045	0.143415	277.943
409.5000	1.19408	-0.000350867	0.143273	277.951
409.0000	1.09957	-0.000348876	0.143044	277.952
408.5000	0.986879	-0.000332326	0.142966	277.952
408.0000	1.12984	-0.000326877	0.142854	277.938
407.5000	0.882856	-0.000334619	0.142813	277.917
407.0000	0.820211	-0.000313129	0.142808	277.889
406.5000	0.764433	-0.000316822	0.142634	277.853
406.0000	0.715199	-0.000315885	0.142703	277.82
405.5000	0.767616	-0.000319066	0.143045	277.767
405.0000	0.897731	-0.000313911	0.143354	277.674
404.5000	0.909622	-0.000309878	0.14346	277.551
404.0000	0.938991	-0.000293023	0.143785	277.403
403.5000	1.02613	-0.000274084	0.14401	277.235
403.0000	1.0615	-0.000249392	0.144082	277.057
402.5000	1.24058	-0.00023618	0.144525	276.881
402.0000	1.26913	-0.000249997	0.144894	276.724
401.5000	1.30353	-0.000260322	0.145308	276.558
401.0000	1.40095	-0.000263803	0.145849	276.431
400.5000	1.43647	-0.000256964	0.146378	276.336
400.0000	1.36578	-0.000273346	0.146821	276.269
399.5000	1.79323	-0.000260323	0.147123	276.227
399.0000	1.87511	-0.000253978	0.147656	276.209
398.5000	1.91066	-0.000250763	0.148333	276.204
398.0000	1.90997	-0.000251911	0.14888	276.214
397.5000	2.10597	-0.000236028	0.149434	276.262
397.0000	1.96592	-0.000250156	0.150004	276.345
396.5000	2.01625	-0.000262297	0.150579	276.465
396.0000	2.20567	-0.000257862	0.151184	276.611
395.5000	2.10959	-0.000268844	0.151718	276.782
395.0000	1.93214	-0.00029735	0.152299	276.98
394.5000	1.79143	-0.000305135	0.153078	277.221
394.0000	1.84088	-0.000307884	0.153719	277.466
393.5000	1.75649	-0.000308314	0.154607	277.737
393.0000	1.86228	-0.000317139	0.155222	277.982
392.5000	1.89733	-0.000343905	0.15585	278.205
392.0000	1.79498	-0.000352865	0.156873	278.414
391.5000	1.59184	-0.000345762	0.157753	278.589
391.0000	1.43414	-0.000377422	0.158862	278.768
390.5000	1.46113	-0.000393751	0.159928	278.94
390.0000	1.83421	-0.000392654	0.160769	279.107
389.5000	1.9405	-0.000387299	0.161772	279.257
389.0000	2.18447	-0.00039499	0.162873	279.386
388.5000	2.16464	-0.000416036	0.164119	279.523
388.0000	2.03386	-0.000418119	0.165424	279.655
387.5000	2.17159	-0.000426442	0.166832	279.788
387.0000	2.20068	-0.000445998	0.168159	279.909
386.5000	2.22944	-0.000450342	0.16936	279.998
386.0000	2.30043	-0.000455599	0.170645	280.082
385.5000	2.27335	-0.000463583	0.172215	280.163
385.0000	2.18716	-0.000483516	0.173672	280.244
384.5000	2.27918	-0.000473895	0.175218	280.327
384.0000	2.31218	-0.000473842	0.176874	280.423
383.5000	2.29853	-0.000496604	0.178178	280.5
383.0000	2.44809	-0.000512168	0.179657	280.593
382.5000	2.54472	-0.000507351	0.180918	280.683
382.0000	2.60033	-0.000513012	0.182431	280.767
381.5000	2.46046	-0.000539058	0.183953	280.866
381.0000	2.35837	-0.0005514	0.185317	280.968
380.5000	2.50665	-0.000553086	0.186367	281.065
380.0000	2.63307	-0.000566471	0.187518	281.163
379.5000	2.71843	-0.00058281	0.188554	281.253
379.0000	2.70094	-0.000601709	0.189679	281.351
378.5000	2.64454	-0.000618206	0.190765	281.451
378.0000	2.71954	-0.000627989	0.191806	281.557
377.5000	2.93223	-0.000654102	0.192689	281.646
377.0000	2.9053	-0.000668169	0.193221	281.712
376.5000	3.17651	-0.000664178	0.194045	281.785
376.0000	3.30336	-0.000691995	0.194907	281.853
375.5000	3.46511	-0.000711955	0.195722	281.918
375.0000	3.69621	-0.00072711	0.196455	281.983
374.5000	3.65639	-0.000743119	0.197115	282.038
374.0000	3.56677	-0.000758971	0.197807	282.078
373.5000	3.65067	-0.000784286	0.198538	282.134
373.0000	3.61142	-0.000804297	0.199347	282.186
372.5000	3.55604	-0.000824569	0.200289	282.253
372.0000	3.45932	-0.00083079	0.201111	282.316
371.5000	3.60152	-0.000846352	0.202005	282.39
371.0000	3.6858	-0.00086937	0.202762	282.465
370.5000	3.8434	-0.000876916	0.203736	282.558
370.0000	3.89413	-0.000888344	0.204572	282.64
369.5000	3.9579	-0.000905878	0.205563	282.734
369.0000	3.80054	-0.000918812	0.206742	282.846
368.5000	4.05366	-0.000923502	0.207999	282.985
368.0000	3.94985	-0.000946986	0.20925	283.128
367.5000	3.75629	-0.000951469	0.210432	283.263
367.0000	3.62108	-0.000952939	0.211579	283.407
366.5000	3.728	-0.000960597	0.212938	283.55
366.0000	3.75696	-0.000977386	0.214493	283.714
365.5000	3.73663	-0.000989601	0.215841	283.872
365.0000	3.97243	-0.000996814	0.216979	284.015
364.5000	3.93003	-0.00101897	0.2181	284.152
364.0000	3.91717	-0.00103729	0.219405	284.302
363.5000	3.85987	-0.00105255	0.220697	284.454
363.0000	3.68518	-0.00105581	0.222113	284.61
362.5000	3.80339	-0.00106373	0.22329	284.756
362.0000	3.95913	-0.0010827	0.224486	284.9
361.5000	4.03165	-0.00108992	0.225873	285.055
361.0000	3.90933	-0.00110605	0.227105	285.201
360.5000	3.73651	-0.00113035	0.228385	285.35
360.0000	3.6266	-0.00114649	0.229513	285.489
359.5000	3.79874	-0.00116695	0.230823	285.64
359.0000	3.82913	-0.00119809	0.232065	285.783
358.5000	3.85611	-0.0012114	0.233351	285.93
358.0000	3.98306	-0.00124486	0.234551	286.078
357.5000	4.00819	-0.00125706	0.235935	286.242
357.0000	4.13916	-0.00126784	0.237225	286.405
356.5000	4.22647	-0.00128897	0.238491	286.55
356.0000	4.29433	-0.00131943	0.239725	286.695
355.5000	4.28779	-0.00133577	0.240813	286.834
355.0000	4.39388	-0.00137316	0.242129	286.979
354.5000	4.59803	-0.00138648	0.243297	287.13
354.0000	4.67978	-0.00140228	0.244633	287.283
353.5000	4.70742	-0.00141541	0.245972	287.447
353.0000	4.70464	-0.00145102	0.247472	287.624
352.5000	5.05021	-0.00147242	0.248863	287.8
352.0000	5.27595	-0.00148731	0.250221	287.971
351.5000	5.38982	-0.0015123	0.25166	288.14
351.0000	5.24697	-0.0015436	0.252999	288.303
350.5000	5.63459	-0.00155014	0.25439	288.469
350.0000	5.53277	-0.00158095	0.255937	288.651
349.5000	5.63075	-0.00160406	0.257383	288.829
349.0000	5.69572	-0.00162595	0.258801	289.007
348.5000	5.65304	-0.00165492	0.260422	289.189
348.0000	5.54865	-0.0016746	0.262292	289.384
347.5000	5.86477	-0.00169416	0.263836	289.562
347.0000	5.99446	-0.0017247	0.26541	289.746
346.5000	5.90415	-0.00174956	0.267099	289.935
346.0000	6.08645	-0.00177533	0.268953	290.122
345.5000	5.96565	-0.00180121	0.270721	290.306
345.0000	5.99141	-0.00185798	0.272473	290.493
344.5000	6.2964	-0.00189141	0.274125	290.67
344.0000	6.10974	-0.00191506	0.275776	290.846
343.5000	6.27993	-0.00197019	0.277417	291.023
343.0000	6.43877	-0.00198293	0.278913	291.201
342.5000	6.70231	-0.00201427	0.28056	291.38
342.0000	6.65969	-0.00203877	0.282194	291.574
341.5000	6.73892	-0.00206927	0.283663	291.741
341.0000	6.80232	-0.00209115	0.285288	291.921
340.5000	6.97012	-0.00214566	0.287093	292.107
340.0000	7.2585	-0.0021755	0.28844	292.278
339.5000	7.34139	-0.00220313	0.290023	292.472
339.0000	7.34883	-0.00223055	0.291633	292.671
338.5000	7.47757	-0.00227703	0.293179	292.869
338.0000	7.59667	-0.0022931	0.294871	293.076
337.5000	7.86933	-0.00234664	0.296551	293.294
337.0000	7.97493	-0.00238749	0.298336	293.514
336.5000	8.05379	-0.00242085	0.299797	293.708
336.0000	8.23371	-0.00245079	0.301655	293.936
335.5000	8.37552	-0.00248919	0.303423	294.156
335.0000	8.5756	-0.0025175	0.305206	294.375
334.5000	8.78902	-0.00256255	0.307186	294.621
334.0000	8.84899	-0.0026313	0.309241	294.877
333.5000	8.98418	-0.00269757	0.311577	295.148
333.0000	9.28542	-0.00275127	0.313604	295.405
332.5000	9.23584	-0.00279256	0.315474	295.645
332.0000	9.41093	-0.0028245	0.317462	295.896
331.5000	9.49046	-0.0028773	0.31955	296.167
331.0000	9.58143	-0.00294502	0.322143	296.472
330.5000	9.96561	-0.00300325	0.324363	296.735
330.0000	10.1104	-0.00305176	0.326775	297.015
329.5000	10.446	-0.00311821	0.329062	297.292
329.0000	10.5558	-0.00317548	0.331472	297.572
328.5000	10.7909	-0.00323075	0.333844	297.837
328.0000	11.0724	-0.00328328	0.336346	298.093
327.5000	11.3523	-0.00335255	0.338959	298.355
327.0000	11.5662	-0.00340144	0.341467	298.6
326.5000	11.7801	-0.00346858	0.344291	298.9
326.0000	11.9088	-0.00354678	0.347149	299.201
325.5000	12.1397	-0.0036069	0.349593	299.472
325.0000	12.2402	-0.00367015	0.352049	299.746
324.5000	12.372	-0.00373135	0.354928	300.047
324.0000	12.7705	-0.0037823	0.357871	300.367
323.5000	13.0814	-0.00385442	0.360617	300.67
323.0000	13.1727	-0.00392103	0.363532	300.978
322.5000	13.3879	-0.0039819	0.366033	301.259
322.0000	13.4899	-0.00404538	0.368824	301.568
321.5000	13.8968	-0.00409701	0.371644	301.879
321.0000	14.027	-0.00416025	0.374474	302.196
320.5000	14.0963	-0.00421594	0.377461	302.518
320.0000	14.468	-0.00426003	0.38011	302.823
319.5000	14.6767	-0.00429668	0.382732	303.133
319.0000	14.8476	-0.00436572	0.385586	303.473
318.5000	15.0762	-0.0044189	0.38874	303.843
318.0000	15.4312	-0.00446467	0.39181	304.165
317.5000	15.7517	-0.00451567	0.394938	304.477
317.0000	16.0007	-0.00455558	0.398236	304.812
316.5000	16.4331	-0.0046038	0.401354	305.138
316.0000	16.8409	-0.00465756	0.404608	305.486
315.5000	17.0218	-0.00470793	0.407919	305.842
315.0000	17.1946	-0.00476518	0.411565	306.239
314.5000	17.4887	-0.00480308	0.415475	306.651
314.0000	17.9263	-0.00486077	0.41937	307.057
313.5000	18.0531	-0.00491217	0.423478	307.487
313.0000	18.2072	-0.00494247	0.427915	307.949
312.5000	18.7819	-0.00500118	0.43223	308.413
312.0000	19.1931	-0.00505998	0.43665	308.899
311.5000	19.5837	-0.00512565	0.441489	309.417
311.0000	19.7856	-0.00518061	0.446534	309.952
310.5000	20.0486	-0.00524004	0.451992	310.528
310.0000	20.298	-0.00529581	0.457052	311.076
309.5000	20.4929	-0.00534438	0.462453	311.667
309.0000	20.9571	-0.00540983	0.468231	312.324
308.5000	21.1921	-0.00545502	0.4742	312.992
308.0000	21.5283	-0.00551281	0.480092	313.633
307.5000	21.5972	-0.00556812	0.487074	314.359
307.0000	21.9684	-0.00563172	0.493505	315.036
306.5000	22.2782	-0.00569009	0.500521	315.778
306.0000	22.5909	-0.00574828	0.507243	316.486
305.5000	22.7765	-0.00579934	0.514549	317.265
305.0000	23.102	-0.00586365	0.521684	318.014
304.5000	23.3912	-0.00593059	0.529331	318.816
304.0000	23.5431	-0.00595099	0.537016	319.626
303.5000	23.7721	-0.00597543	0.544526	320.415
303.0000	23.7632	-0.00599736	0.55247	321.254
302.5000	24.1548	-0.00603198	0.560207	322.092
302.0000	24.5308	-0.00604363	0.568126	322.942
301.5000	24.5175	-0.00604551	0.576015	323.792
301.0000	24.2477	-0.00605454	0.583554	324.612
300.5000	24.096	-0.00605189	0.590587	325.349
300.0000	24.1304	-0.00608345	0.598632	326.205
299.5000	24.0241	-0.00607621	0.606296	327.031
299.0000	24.0395	-0.00605635	0.613788	327.851
298.5000	23.989	-0.00604273	0.6215	328.678
298.0000	23.7067	-0.00601838	0.628596	329.453
297.5000	23.3938	-0.00598406	0.635849	330.255
297.0000	23.1711	-0.00595169	0.642451	330.969
296.5000	22.8952	-0.00588856	0.64881	331.66
296.0000	22.4511	-0.00585446	0.655452	332.347
295.5000	22.1369	-0.00582648	0.662156	333.013
295.0000	21.8926	-0.00580093	0.668373	333.654
294.5000	21.3739	-0.00575881	0.674352	334.311
294.0000	20.9837	-0.00570428	0.68069	335.023
293.5000	20.8481	-0.00565991	0.686025	335.626
293.0000	20.7989	-0.00562036	0.691948	336.288
292.5000	21.1257	-0.00555981	0.698278	336.989
292.0000	21.0204	-0.00548576	0.70404	337.647
291.5000	20.8273	-0.00540272	0.709811	338.297
291.0000	20.583	-0.00533949	0.715575	338.948
290.5000	20.5099	-0.00525939	0.721431	339.627
290.0000	20.1592	-0.00519192	0.727018	340.281
289.5000	20.335	-0.00514279	0.732425	340.901
289.0000	20.1287	-0.00508402	0.737813	341.512
288.5000	20.0279	-0.00501167	0.74391	342.201
288.0000	20.1517	-0.004935	0.749623	342.881
287.5000	20.0239	-0.00484055	0.755379	343.601
287.0000	19.8322	-0.00477648	0.761272	344.348
286.5000	20.0384	-0.00466955	0.767278	345.07
286.0000	19.8284	-0.00458276	0.773498	345.772
285.5000	19.6378	-0.00449637	0.779841	346.478
285.0000	19.2901	-0.00440634	0.786436	347.223
284.5000	18.7806	-0.00429828	0.792432	347.918
284.0000	17.9903	-0.00423431	0.798948	348.671
283.5000	17.7532	-0.00413755	0.805786	349.454
283.0000	17.152	-0.00407105	0.812405	350.207
282.5000	16.8969	-0.00397284	0.819591	351.02
282.0000	16.7919	-0.00390108	0.82692	351.873
281.5000	16.6058	-0.00381068	0.834198	352.704
281.0000	16.4051	-0.00371971	0.84176	353.577
280.5000	15.9194	-0.003613	0.849948	354.54
280.0000	15.3672	-0.0035311	0.858452	355.522
279.5000	15.1006	-0.00344703	0.867305	356.544
279.0000	14.5964	-0.00336315	0.875978	357.56
278.5000	14.4452	-0.00326199	0.885614	358.684
278.0000	14.0623	-0.003184	0.896207	359.923
277.5000	13.5545	-0.0031193	0.906038	361.078
277.0000	12.7609	-0.0030509	0.916786	362.344
276.5000	12.3437	-0.00294221	0.927796	363.649
276.0000	12.0023	-0.0028956	0.938487	364.882
275.5000	12.0617	-0.00281059	0.950469	366.288
275.0000	11.5805	-0.00274317	0.963037	367.771
274.5000	11.4857	-0.00269739	0.975986	369.308
274.0000	11.2647	-0.00263456	0.990069	370.999
273.5000	10.5348	-0.00256843	1.00346	372.599
273.0000	10.0229	-0.00256039	1.01816	374.35
272.5000	9.70602	-0.00253801	1.03343	376.181
272.0000	9.91845	-0.00249888	1.04939	378.117
271.5000	10.0889	-0.00251627	1.06677	380.254
271.0000	9.76965	-0.00250472	1.08421	382.384
270.5000	9.65451	-0.00252743	1.1022	384.597
270.0000	9.80023	-0.00253065	1.12057	386.892
269.5000	9.34017	-0.00254655	1.13979	389.307
269.0000	9.98627	-0.00257366	1.15897	391.72
268.5000	9.73117	-0.0026068	1.18	394.387
268.0000	9.95209	-0.00266256	1.20179	397.165
267.5000	9.8638	-0.00272583	1.22392	400.042
267.0000	9.76794	-0.00275165	1.24794	403.172
266.5000	9.88927	-0.0028108	1.27258	406.422
266.0000	10.5571	-0.00279296	1.29541	409.448
265.5000	10.8389	-0.00291818	1.32004	412.717
265.0000	11.5046	-0.00301471	1.34638	416.257
264.5000	12.1927	-0.00307295	1.3718	419.718
264.0000	12.9722	-0.0031804	1.39776	423.261
263.5000	13.5343	-0.00333201	1.42556	427.105
263.0000	14.4741	-0.0034087	1.45128	430.69
262.5000	15.1296	-0.00359398	1.48041	434.781
262.0000	15.723	-0.0037672	1.5091	438.849
261.5000	16.5688	-0.00387924	1.53895	443.087
261.0000	17.8134	-0.0040865	1.56792	447.232
260.5000	19.0759	-0.00430106	1.59938	451.762
260.0000	21.561	-0.00446598	1.63187	456.5
259.5000	23.1514	-0.00468048	1.66614	461.498
259.0000	23.9468	-0.00500582	1.70198	466.761
258.5000	26.2192	-0.00533927	1.7395	472.301
258.0000	27.8484	-0.00571298	1.77871	478.124
257.5000	29.9284	-0.00599093	1.8173	483.913
257.0000	32.7	-0.00626495	1.8601	490.368
256.5000	33.444	-0.00649001	1.90265	496.846
256.0000	36.9207	-0.00684686	1.94956	504.05
255.5000	40.0965	-0.00702784	1.99854	511.64
255.0000	43.0667	-0.00730062	2.04959	519.626
254.5000	45.7567	-0.00745447	2.0998	527.569
254.0000	47.7191	-0.00774681	2.152	535.914
253.5000	48.3876	-0.00799935	2.21197	545.589
253.0000	49.6241	-0.00814516	2.26801	554.77
252.5000	49.6968	-0.00831823	2.35414	569.128
252.0000	49.3206	-0.00856311	2.42781	581.652
251.5000	49.3283	-0.00883163	2.49421	593.116
251.0000	48.3353	-0.00870421	2.56305	605.178
250.5000	48.8601	-0.00836983	2.63433	617.87
250.0000	47.641	-0.00817968	2.70427	630.528

##### Extended Information
[Comments]
Sample name	2% S-JS 1
Comment
User
Division
Company	Labo systeme complexes hors equilibre

[Detailed Information]
Creation date	9/22/2025 4:18 PM

Data array type	Linear data array * 4
Horizontal axis	Wavelength [nm]
Vertical axis(1)	CD [mdeg]
Vertical axis(2)	LD [dOD]
Vertical axis(3)	Abs
Vertical axis(4)	HT [V]
Start	700 nm
End	250 nm
Data interval	0.5 nm
Data points	901     

[Measurement Information]
Instrument name	CD Jasco
Model name	J-1500
Serial No.	A005261638

Detector	PM-539
Detector S/N	A0052PM539
  Lock-in amp.	X mode
  HT volt	Auto

Detector	EXPML-535
Detector S/N	A0001
  Lock-in amp.	X mode
  HT volt	Auto

Accessory	PTC-517
Accessory S/N	A001361646
  Temperature	20.01 C
  Control sonsor	Holder
  Monitor sensor	Holder
  Start Mode	Keep target temperature +/-0.10 deg C while 5 seconds

Measurement date	9/22/2025 4:17 PM

Overload detect	1
Photometric mode	CD, LD, Abs, HT
Measure range	700 - 250 nm
Data pitch	0.5 nm
CD scale	200 mdeg/1.0 dOD
FL scale	200 mdeg/1.0 dOD
D.I.T.	1 sec
Bandwidth	1.00 nm
Start mode	Immediately
Scanning speed	500 nm/min
Baseline correction	Baseline
Shutter control	Auto

Concentration	50 mmol/L
Solvent	water

