TITLE	20% S-JS after 72 hrs 1
DATA TYPE	
ORIGIN	JASCO
OWNER	
DATE	25/10/13
TIME	16:04:43
SPECTROMETER/DATA SYSTEM	
LOCALE	1033
RESOLUTION	
DELTAX	-0.5
XUNITS	NANOMETERS
YUNITS	CD [mdeg]
Y2UNITS	LD [dOD]
Y3UNITS	ABSORBANCE
Y4UNITS	HT [V]
FIRSTX	  700.0000
LASTX	  250.0000
NPOINTS	     901
FIRSTY	     0.30735
MAXY	   150.29741
MINY	   -25.65274
XYDATA
700.0000	0.307352	-0.00155982	0.225676	329.751
699.5000	0.386646	-0.00155159	0.225262	329.157
699.0000	0.536906	-0.00155645	0.224943	328.472
698.5000	0.664819	-0.0016106	0.224595	327.751
698.0000	0.589981	-0.00162508	0.224551	327.044
697.5000	0.535834	-0.0016383	0.224861	326.409
697.0000	0.406078	-0.00162409	0.225465	325.816
696.5000	0.466605	-0.00163415	0.226247	325.324
696.0000	0.693745	-0.00161322	0.227079	324.881
695.5000	0.650894	-0.00161811	0.227743	324.519
695.0000	0.733871	-0.0016321	0.228269	324.258
694.5000	0.62891	-0.00163531	0.228864	324.027
694.0000	0.997854	-0.00160097	0.229295	323.821
693.5000	0.924834	-0.00160047	0.229687	323.642
693.0000	0.960417	-0.00159841	0.230226	323.513
692.5000	0.965025	-0.00161423	0.231023	323.442
692.0000	1.11737	-0.00164867	0.23195	323.445
691.5000	1.18777	-0.0016324	0.233235	323.561
691.0000	1.12249	-0.00166033	0.234688	323.822
690.5000	1.12677	-0.00163976	0.235871	324.163
690.0000	1.07342	-0.00163479	0.23655	324.558
689.5000	0.913834	-0.00165407	0.236877	324.96
689.0000	0.64811	-0.00170512	0.237056	325.342
688.5000	0.479416	-0.00171521	0.237055	325.697
688.0000	0.213886	-0.0017209	0.236917	326.029
687.5000	0.466487	-0.00171599	0.236976	326.353
687.0000	0.509887	-0.00170684	0.237136	326.627
686.5000	0.538715	-0.00169843	0.237426	326.896
686.0000	0.263541	-0.00173322	0.237723	327.157
685.5000	0.152098	-0.00175391	0.238179	327.449
685.0000	-0.225348	-0.00176887	0.238609	327.761
684.5000	-0.583596	-0.00175084	0.238856	328.077
684.0000	-0.65064	-0.00174835	0.238732	328.364
683.5000	-1.05512	-0.00173371	0.238449	328.613
683.0000	-1.24021	-0.001741	0.237985	328.791
682.5000	-1.01616	-0.00171513	0.237356	328.884
682.0000	-0.919305	-0.0017197	0.236906	328.903
681.5000	-0.790078	-0.00175728	0.236622	328.879
681.0000	-0.398479	-0.00174344	0.236815	328.851
680.5000	-0.309882	-0.00173364	0.237206	328.815
680.0000	0.174853	-0.00171334	0.237742	328.796
679.5000	0.169782	-0.00171231	0.237895	328.754
679.0000	0.045314	-0.00173782	0.238	328.731
678.5000	0.0994936	-0.00173034	0.238186	328.719
678.0000	0.0957071	-0.00172482	0.238612	328.731
677.5000	0.0651488	-0.00171201	0.23892	328.739
677.0000	0.484623	-0.00170117	0.239415	328.756
676.5000	0.692016	-0.00170643	0.239535	328.773
676.0000	0.724531	-0.00171226	0.239871	328.816
675.5000	1.13191	-0.00174334	0.240471	328.877
675.0000	1.37688	-0.00173417	0.240896	328.941
674.5000	1.34637	-0.00177134	0.241112	329.001
674.0000	1.32238	-0.00173858	0.241796	329.099
673.5000	1.24212	-0.00170536	0.242167	329.189
673.0000	1.12891	-0.00169802	0.242358	329.283
672.5000	1.18338	-0.00169249	0.242317	329.376
672.0000	1.22326	-0.00172921	0.242414	329.473
671.5000	0.904037	-0.00174769	0.24283	329.583
671.0000	0.697603	-0.00176278	0.243459	329.712
670.5000	0.848398	-0.00176601	0.243811	329.817
670.0000	0.945685	-0.00178211	0.243937	329.925
669.5000	0.951918	-0.0017743	0.244123	330.036
669.0000	0.760187	-0.00179073	0.244459	330.174
668.5000	0.484765	-0.00181915	0.244791	330.307
668.0000	0.285091	-0.00181898	0.245268	330.449
667.5000	0.270804	-0.00182062	0.245544	330.589
667.0000	0.00502605	-0.00183027	0.24555	330.724
666.5000	-0.0130128	-0.00182342	0.245964	330.85
666.0000	0.0237481	-0.00186097	0.246136	330.953
665.5000	-0.128669	-0.00191153	0.24636	331.047
665.0000	-0.348418	-0.00193306	0.246706	331.127
664.5000	-0.629905	-0.00195358	0.246931	331.183
664.0000	-0.76127	-0.00192887	0.247024	331.217
663.5000	-0.60711	-0.00191288	0.247124	331.239
663.0000	-0.214055	-0.00188988	0.24726	331.251
662.5000	-0.202137	-0.00190192	0.247459	331.248
662.0000	-0.426047	-0.00190634	0.247607	331.226
661.5000	-0.0113064	-0.00191183	0.247703	331.177
661.0000	0.0374251	-0.00191884	0.247845	331.11
660.5000	0.141293	-0.00191566	0.247916	330.999
660.0000	0.441491	-0.00191286	0.248007	330.873
659.5000	0.762353	-0.00189809	0.247853	330.694
659.0000	0.754028	-0.00194331	0.248081	330.488
658.5000	0.868389	-0.00196033	0.24799	330.241
658.0000	0.916241	-0.00196989	0.248005	330.005
657.5000	1.04174	-0.00194969	0.248341	329.755
657.0000	1.07562	-0.00196258	0.248788	329.538
656.5000	0.951372	-0.00197743	0.24926	329.332
656.0000	1.10683	-0.00200085	0.249916	329.157
655.5000	1.20354	-0.00199986	0.250647	329.022
655.0000	1.14604	-0.00201597	0.25136	328.907
654.5000	0.907411	-0.00201937	0.25208	328.831
654.0000	0.505904	-0.00204985	0.252917	328.79
653.5000	0.348219	-0.00204736	0.253685	328.787
653.0000	-0.161707	-0.00205639	0.254528	328.816
652.5000	-0.422284	-0.00205371	0.255252	328.885
652.0000	-0.322481	-0.00207981	0.255922	328.968
651.5000	-0.508335	-0.00209308	0.256856	329.112
651.0000	-0.33114	-0.00208888	0.257788	329.301
650.5000	-0.0922644	-0.00207905	0.258772	329.527
650.0000	0.134425	-0.00207491	0.259567	329.763
649.5000	0.154348	-0.00210461	0.26029	330.004
649.0000	0.312351	-0.00210507	0.260685	330.213
648.5000	0.536062	-0.00210147	0.261022	330.429
648.0000	0.65913	-0.0020979	0.261437	330.629
647.5000	0.838539	-0.00212111	0.261788	330.8
647.0000	1.21758	-0.00213324	0.262026	330.937
646.5000	1.3126	-0.00211906	0.262232	331.036
646.0000	1.54518	-0.00214701	0.262391	331.087
645.5000	2.05863	-0.00215029	0.262774	331.125
645.0000	2.42124	-0.00214088	0.263109	331.132
644.5000	2.75325	-0.0021656	0.263767	331.136
644.0000	3.01367	-0.00220356	0.26427	331.117
643.5000	3.21106	-0.00223371	0.264737	331.079
643.0000	2.96639	-0.00227299	0.265264	331.025
642.5000	2.79065	-0.00228559	0.265668	330.948
642.0000	2.6047	-0.00229727	0.266243	330.877
641.5000	2.2035	-0.00230441	0.266817	330.807
641.0000	2.23173	-0.00234077	0.26756	330.74
640.5000	2.27041	-0.0023607	0.268288	330.669
640.0000	2.07022	-0.00236663	0.2691	330.603
639.5000	2.28068	-0.0023864	0.269921	330.523
639.0000	2.36516	-0.00238323	0.270777	330.456
638.5000	2.06665	-0.00245153	0.271667	330.399
638.0000	2.0371	-0.0024796	0.27262	330.365
637.5000	1.92375	-0.00252566	0.273544	330.335
637.0000	1.79187	-0.00255853	0.274568	330.323
636.5000	1.88211	-0.00257516	0.275382	330.311
636.0000	1.9083	-0.00259652	0.276206	330.306
635.5000	1.91006	-0.00260805	0.277116	330.316
635.0000	2.21773	-0.0026031	0.278096	330.327
634.5000	2.40201	-0.00262306	0.278983	330.341
634.0000	2.612	-0.00263602	0.280004	330.376
633.5000	2.85014	-0.00265404	0.280846	330.39
633.0000	2.88324	-0.00267841	0.281625	330.39
632.5000	2.94157	-0.00266028	0.282757	330.41
632.0000	3.16099	-0.0026956	0.283832	330.424
631.5000	3.08889	-0.00271535	0.284975	330.446
631.0000	3.15239	-0.00274162	0.286036	330.462
630.5000	3.15491	-0.00276649	0.287265	330.469
630.0000	3.31664	-0.00275062	0.288462	330.469
629.5000	3.22135	-0.00275259	0.28968	330.462
629.0000	3.44614	-0.00276959	0.290812	330.46
628.5000	3.31424	-0.00277766	0.292	330.477
628.0000	3.27531	-0.00276988	0.293462	330.501
627.5000	3.50632	-0.00274126	0.294904	330.531
627.0000	3.75013	-0.00274438	0.296219	330.571
626.5000	3.75808	-0.00275513	0.297587	330.63
626.0000	3.93573	-0.00277737	0.299114	330.718
625.5000	3.84518	-0.00278939	0.300657	330.822
625.0000	3.94774	-0.00281757	0.302245	330.95
624.5000	4.24347	-0.00286038	0.303818	331.09
624.0000	4.07551	-0.00291459	0.305354	331.253
623.5000	4.03164	-0.00291955	0.307086	331.44
623.0000	3.89446	-0.00294901	0.308764	331.631
622.5000	3.88464	-0.00296574	0.310414	331.845
622.0000	4.16477	-0.00298509	0.31197	332.062
621.5000	4.22481	-0.00300928	0.313872	332.323
621.0000	4.7059	-0.00304511	0.315539	332.58
620.5000	4.70175	-0.00306538	0.317153	332.833
620.0000	4.94787	-0.00308085	0.318871	333.106
619.5000	5.35855	-0.0031563	0.320749	333.438
619.0000	5.33768	-0.00318963	0.322774	333.787
618.5000	5.34245	-0.00324016	0.32489	334.15
618.0000	5.30636	-0.00327682	0.327017	334.489
617.5000	5.57882	-0.00331125	0.329157	334.829
617.0000	5.86622	-0.00332474	0.331198	335.165
616.5000	6.00121	-0.00333754	0.3333	335.502
616.0000	6.214	-0.00335632	0.335228	335.818
615.5000	6.78437	-0.00337796	0.337285	336.133
615.0000	7.24462	-0.00343724	0.339419	336.443
614.5000	7.44119	-0.00349513	0.341472	336.746
614.0000	7.43694	-0.00352148	0.343492	337.04
613.5000	7.40453	-0.00357425	0.345484	337.337
613.0000	7.33184	-0.00361411	0.347808	337.656
612.5000	7.53362	-0.00366491	0.350264	337.978
612.0000	8.10729	-0.00370364	0.353053	338.304
611.5000	8.37725	-0.00372796	0.355575	338.585
611.0000	8.57835	-0.00380447	0.358143	338.886
610.5000	8.60661	-0.00385796	0.360765	339.186
610.0000	8.69862	-0.00388463	0.363348	339.47
609.5000	9.10395	-0.00393844	0.365972	339.76
609.0000	9.43127	-0.00398793	0.36859	340.04
608.5000	9.81917	-0.00403877	0.371535	340.341
608.0000	10.3449	-0.0040903	0.374421	340.615
607.5000	10.2817	-0.00414265	0.377408	340.882
607.0000	10.5668	-0.00416921	0.380779	341.196
606.5000	11.2277	-0.00418346	0.383935	341.508
606.0000	11.697	-0.00420983	0.387494	341.843
605.5000	12.6094	-0.00424687	0.391397	342.187
605.0000	13.2919	-0.00431284	0.39514	342.517
604.5000	14.0816	-0.00437242	0.398846	342.837
604.0000	14.4352	-0.00442781	0.402572	343.163
603.5000	14.7903	-0.00447963	0.406564	343.508
603.0000	15.214	-0.0045114	0.410497	343.844
602.5000	16.5192	-0.00452964	0.414653	344.196
602.0000	17.4325	-0.00457608	0.418863	344.544
601.5000	18.4839	-0.00460029	0.423352	344.926
601.0000	19.2157	-0.00465082	0.428273	345.33
600.5000	19.9573	-0.0046959	0.433259	345.736
600.0000	20.3416	-0.00476467	0.438392	346.142
599.5000	21.4766	-0.00482679	0.443768	346.574
599.0000	22.4506	-0.00491963	0.449315	347.003
598.5000	23.6177	-0.00499496	0.455362	347.446
598.0000	24.7409	-0.00509238	0.461001	347.866
597.5000	25.9059	-0.00514287	0.466746	348.316
597.0000	26.8559	-0.00520633	0.472916	348.799
596.5000	27.5576	-0.0052774	0.479065	349.268
596.0000	29.0863	-0.0053379	0.48549	349.763
595.5000	30.4161	-0.00541072	0.492008	350.283
595.0000	31.5621	-0.00548882	0.498734	350.791
594.5000	32.8565	-0.00557961	0.506053	351.368
594.0000	34.8204	-0.00568493	0.514033	352.009
593.5000	36.277	-0.00578859	0.522102	352.638
593.0000	37.791	-0.00589113	0.530377	353.303
592.5000	39.7206	-0.00597248	0.539118	354.034
592.0000	42.027	-0.00605543	0.547647	354.781
591.5000	44.0605	-0.00612816	0.555888	355.501
591.0000	45.9145	-0.00618986	0.564515	356.278
590.5000	47.615	-0.00624357	0.573354	357.103
590.0000	49.9717	-0.00631484	0.582893	357.996
589.5000	51.9295	-0.0064124	0.592541	358.911
589.0000	54.5972	-0.00651158	0.602517	359.856
588.5000	56.9871	-0.00658741	0.613232	360.876
588.0000	59.9708	-0.00666461	0.624258	361.938
587.5000	62.3941	-0.00678205	0.635497	363.049
587.0000	65.3908	-0.0068755	0.64724	364.24
586.5000	68.3957	-0.00695937	0.658677	365.384
586.0000	70.7021	-0.00701462	0.670341	366.554
585.5000	73.2268	-0.00708323	0.681486	367.706
585.0000	75.7257	-0.00717721	0.693078	368.914
584.5000	78.7205	-0.00723876	0.704008	370.052
584.0000	81.3308	-0.00732551	0.715765	371.275
583.5000	83.728	-0.00740429	0.727827	372.528
583.0000	86.5133	-0.00754473	0.740839	373.877
582.5000	89.7222	-0.00765308	0.753666	375.216
582.0000	92.5934	-0.00776964	0.766292	376.515
581.5000	95.5373	-0.00786094	0.779051	377.837
581.0000	97.9295	-0.007923	0.791674	379.141
580.5000	100.047	-0.00799051	0.803686	380.415
580.0000	102.13	-0.00806752	0.815364	381.629
579.5000	104.355	-0.00812575	0.82697	382.824
579.0000	106.257	-0.00814379	0.837917	383.964
578.5000	107.891	-0.00820045	0.848534	385.054
578.0000	110.188	-0.00824764	0.858968	386.137
577.5000	111.634	-0.00830511	0.869349	387.206
577.0000	112.921	-0.00839077	0.879168	388.175
576.5000	114.164	-0.00844856	0.888799	389.136
576.0000	114.819	-0.00848499	0.89743	390.006
575.5000	115.737	-0.00852442	0.905802	390.829
575.0000	116.369	-0.00850188	0.912774	391.522
574.5000	116.606	-0.00851973	0.919717	392.21
574.0000	116.489	-0.00854684	0.925822	392.79
573.5000	116.348	-0.00852768	0.931308	393.315
573.0000	116.496	-0.00851063	0.936312	393.787
572.5000	116.653	-0.00853714	0.940548	394.144
572.0000	115.992	-0.00852556	0.944579	394.477
571.5000	115.31	-0.00855389	0.948016	394.733
571.0000	114.575	-0.00856738	0.950825	394.906
570.5000	113.946	-0.00858415	0.952987	395.022
570.0000	112.996	-0.00855884	0.954499	395.07
569.5000	111.941	-0.00852203	0.955519	395.045
569.0000	111.357	-0.00846629	0.955938	394.964
568.5000	110.868	-0.00839812	0.956026	394.836
568.0000	109.924	-0.00838808	0.955648	394.618
567.5000	108.446	-0.00839211	0.954891	394.357
567.0000	107.693	-0.0083395	0.953806	394.079
566.5000	106.537	-0.00830346	0.952243	393.723
566.0000	105.856	-0.0082657	0.950604	393.357
565.5000	104.937	-0.00823695	0.948922	392.983
565.0000	103.973	-0.00826634	0.946998	392.568
564.5000	103.052	-0.00823673	0.944946	392.169
564.0000	102.786	-0.00819423	0.94278	391.757
563.5000	102.245	-0.00815658	0.940708	391.34
563.0000	101.334	-0.0081293	0.93852	390.933
562.5000	101.105	-0.00805865	0.936688	390.534
562.0000	100.68	-0.00798729	0.935117	390.166
561.5000	99.8408	-0.00799671	0.933298	389.755
561.0000	99.2737	-0.00798068	0.931608	389.355
560.5000	98.5118	-0.00798702	0.930253	389.002
560.0000	98.0274	-0.00799796	0.929034	388.701
559.5000	97.885	-0.00800308	0.928435	388.445
559.0000	98.6456	-0.00798475	0.928256	388.24
558.5000	98.5739	-0.00796892	0.928187	388.059
558.0000	98.5913	-0.00798989	0.928475	387.936
557.5000	99.2863	-0.00797992	0.929113	387.851
557.0000	100.2	-0.00795615	0.930305	387.825
556.5000	100.9	-0.00793134	0.931956	387.845
556.0000	101.869	-0.00795661	0.934264	387.926
555.5000	102.502	-0.0079743	0.936953	388.065
555.0000	103.536	-0.00795785	0.940094	388.248
554.5000	104.685	-0.00793108	0.943735	388.508
554.0000	106.069	-0.00797283	0.947859	388.821
553.5000	107.596	-0.00801036	0.951975	389.135
553.0000	109.356	-0.00799739	0.956527	389.522
552.5000	110.588	-0.00805004	0.961604	389.97
552.0000	112.139	-0.00809323	0.967416	390.463
551.5000	113.811	-0.0080839	0.973343	390.984
551.0000	115.407	-0.0080982	0.98004	391.614
550.5000	117.037	-0.00816699	0.987074	392.252
550.0000	118.612	-0.00815951	0.995065	393.002
549.5000	120.508	-0.00818089	1.00271	393.727
549.0000	122.102	-0.00819802	1.01092	394.534
548.5000	124.27	-0.00824158	1.01977	395.431
548.0000	126.281	-0.00828445	1.02953	396.393
547.5000	128.017	-0.00835529	1.03909	397.365
547.0000	130.387	-0.00838763	1.04907	398.39
546.5000	131.993	-0.00847635	1.05893	399.426
546.0000	134.132	-0.00852985	1.06903	400.502
545.5000	135.149	-0.00859188	1.07941	401.598
545.0000	136.498	-0.00865343	1.08953	402.699
544.5000	138.277	-0.00871914	1.10018	403.827
544.0000	140.007	-0.00874007	1.11076	404.98
543.5000	141.583	-0.00879001	1.1213	406.124
543.0000	143.143	-0.00880969	1.13186	407.274
542.5000	144.234	-0.00891575	1.14244	408.418
542.0000	145.863	-0.00895564	1.15322	409.566
541.5000	147.163	-0.0090645	1.16375	410.724
541.0000	148.403	-0.00908389	1.17403	411.825
540.5000	149.17	-0.009105	1.1843	412.92
540.0000	149.578	-0.00914496	1.19404	413.938
539.5000	149.492	-0.00914665	1.20298	414.902
539.0000	150.297	-0.00918302	1.21219	415.894
538.5000	150.277	-0.00922306	1.22117	416.834
538.0000	149.622	-0.00924224	1.22907	417.651
537.5000	149.634	-0.0092443	1.23673	418.429
537.0000	148.742	-0.00933337	1.24399	419.139
536.5000	148.131	-0.00930388	1.25037	419.759
536.0000	147.243	-0.00932961	1.25656	420.338
535.5000	145.723	-0.00930303	1.26184	420.819
535.0000	144.527	-0.00932919	1.26683	421.244
534.5000	143.09	-0.00932551	1.27102	421.563
534.0000	140.86	-0.00931046	1.27444	421.831
533.5000	139.206	-0.00931605	1.27742	422.047
533.0000	136.969	-0.00935085	1.27995	422.167
532.5000	134.778	-0.00936376	1.28198	422.259
532.0000	132.441	-0.00936562	1.28356	422.287
531.5000	130.258	-0.00936082	1.28482	422.257
531.0000	127.481	-0.00934082	1.28541	422.117
530.5000	124.847	-0.00928052	1.28567	421.94
530.0000	122.061	-0.00925525	1.28546	421.703
529.5000	119.079	-0.00928501	1.28524	421.462
529.0000	116.559	-0.00931212	1.28445	421.166
528.5000	114.643	-0.00925047	1.28345	420.858
528.0000	112.121	-0.00927605	1.28211	420.532
527.5000	110.059	-0.00928094	1.28062	420.162
527.0000	107.158	-0.00928187	1.27898	419.742
526.5000	104.593	-0.00927772	1.27709	419.319
526.0000	102.52	-0.00926175	1.27503	418.858
525.5000	100.656	-0.00924242	1.27288	418.378
525.0000	98.6613	-0.00918768	1.2706	417.903
524.5000	96.5408	-0.00917096	1.26857	417.458
524.0000	94.7266	-0.00915585	1.26653	417.018
523.5000	92.3664	-0.00915862	1.26445	416.573
523.0000	90.5799	-0.00914159	1.26253	416.143
522.5000	89.3194	-0.00913914	1.26087	415.767
522.0000	87.7553	-0.00919407	1.25933	415.397
521.5000	86.6319	-0.00917807	1.25797	415.062
521.0000	85.1497	-0.00915402	1.25651	414.715
520.5000	84.5857	-0.00906686	1.2553	414.399
520.0000	82.7912	-0.00906001	1.2543	414.1
519.5000	81.7955	-0.00903041	1.25371	413.823
519.0000	80.6526	-0.00905407	1.25333	413.578
518.5000	79.5687	-0.00901309	1.25329	413.407
518.0000	78.278	-0.00906508	1.25338	413.262
517.5000	77.0145	-0.00903468	1.25361	413.156
517.0000	75.4778	-0.00903987	1.25396	413.048
516.5000	73.3792	-0.00906386	1.25447	412.968
516.0000	72.5301	-0.00899019	1.25516	412.914
515.5000	71.16	-0.00895148	1.25602	412.905
515.0000	69.7372	-0.00892034	1.25682	412.892
514.5000	68.4381	-0.00901576	1.25786	412.901
514.0000	67.4131	-0.00896261	1.25894	412.902
513.5000	65.9746	-0.00896556	1.25992	412.889
513.0000	64.3556	-0.00900196	1.26092	412.875
512.5000	62.4702	-0.00901679	1.26204	412.89
512.0000	60.7308	-0.00903028	1.26297	412.885
511.5000	58.6811	-0.0090451	1.26374	412.881
511.0000	56.9019	-0.00904349	1.26408	412.814
510.5000	54.7794	-0.00905052	1.26421	412.696
510.0000	52.2193	-0.00901889	1.26405	412.51
509.5000	50.0189	-0.00899615	1.26361	412.263
509.0000	47.312	-0.00902458	1.26287	411.99
508.5000	45.0934	-0.00905176	1.26199	411.706
508.0000	42.5303	-0.00906092	1.26058	411.37
507.5000	40.0456	-0.00911312	1.2586	410.999
507.0000	38.0006	-0.00912804	1.25631	410.592
506.5000	35.5837	-0.0091113	1.25364	410.145
506.0000	33.3075	-0.00912664	1.25083	409.672
505.5000	30.7813	-0.00914704	1.24727	409.119
505.0000	27.8752	-0.00911079	1.24333	408.523
504.5000	24.789	-0.00914708	1.23847	407.792
504.0000	22.1142	-0.00914344	1.23342	407.02
503.5000	19.0749	-0.00910187	1.22766	406.164
503.0000	16.1443	-0.00910154	1.22096	405.18
502.5000	13.2093	-0.00911759	1.21459	404.242
502.0000	10.6818	-0.00908968	1.20733	403.215
501.5000	8.70218	-0.00909534	1.19981	402.153
501.0000	6.31331	-0.00906689	1.19138	400.937
500.5000	4.2562	-0.00905549	1.18241	399.56
500.0000	1.89608	-0.00902091	1.17278	397.993
499.5000	-0.650471	-0.00901051	1.16275	396.253
499.0000	-2.89471	-0.00893116	1.15177	394.244
498.5000	-4.79328	-0.00888874	1.141	392.208
498.0000	-6.80414	-0.00884495	1.13044	390.19
497.5000	-8.90363	-0.00875592	1.11948	388.222
497.0000	-10.6831	-0.00867511	1.10903	386.537
496.5000	-12.0205	-0.00860824	1.09752	384.901
496.0000	-13.2841	-0.00850681	1.08619	383.372
495.5000	-14.3955	-0.00845832	1.0741	381.784
495.0000	-15.1079	-0.00839081	1.06261	380.277
494.5000	-16.2105	-0.00832383	1.05101	378.792
494.0000	-17.1324	-0.00822452	1.04003	377.401
493.5000	-18.2274	-0.0081468	1.02861	375.964
493.0000	-19.2089	-0.00806339	1.01784	374.644
492.5000	-20.0953	-0.00797129	1.00652	373.296
492.0000	-20.9701	-0.00788416	0.994484	371.898
491.5000	-21.2535	-0.00781593	0.983324	370.661
491.0000	-21.814	-0.00773892	0.972285	369.513
490.5000	-22.4686	-0.00764997	0.961545	368.43
490.0000	-23.2085	-0.00756452	0.950538	367.302
489.5000	-23.7172	-0.00751707	0.939633	366.047
489.0000	-23.9568	-0.00743869	0.928101	364.481
488.5000	-24.2843	-0.00738737	0.917587	362.87
488.0000	-24.6605	-0.00732035	0.90727	361.165
487.5000	-25.1588	-0.00726107	0.897263	359.405
487.0000	-25.4755	-0.00717281	0.888232	357.792
486.5000	-25.6527	-0.00711412	0.879061	356.24
486.0000	-25.1469	-0.00702927	0.870835	354.984
485.5000	-25.0619	-0.0069619	0.862602	353.859
485.0000	-25.0085	-0.00691098	0.853955	352.763
484.5000	-25.2526	-0.00686083	0.84569	351.75
484.0000	-25.2404	-0.0067526	0.837101	350.773
483.5000	-25.3086	-0.00666476	0.829097	349.916
483.0000	-25.3202	-0.00656705	0.820762	349.069
482.5000	-25.1781	-0.00649777	0.813473	348.351
482.0000	-24.8239	-0.00644444	0.806413	347.694
481.5000	-24.2896	-0.00634906	0.799052	347.042
481.0000	-24.2048	-0.00628656	0.79205	346.437
480.5000	-24.282	-0.00623109	0.784662	345.75
480.0000	-24.1156	-0.00614683	0.776117	344.719
479.5000	-24.2026	-0.00610136	0.768347	343.451
479.0000	-23.951	-0.00604023	0.761951	342.276
478.5000	-23.899	-0.00597885	0.756473	341.458
478.0000	-23.7253	-0.00589307	0.75006	340.689
477.5000	-23.803	-0.00583682	0.743259	339.826
477.0000	-23.9266	-0.00577463	0.73585	338.701
476.5000	-23.8209	-0.00571184	0.727475	337.181
476.0000	-23.7061	-0.0056393	0.719505	335.557
475.5000	-23.634	-0.00556897	0.711577	333.784
475.0000	-23.6302	-0.00551734	0.703365	331.854
474.5000	-23.4542	-0.00546303	0.695516	329.846
474.0000	-23.5592	-0.00539551	0.687761	327.686
473.5000	-23.6027	-0.00532509	0.680305	325.5
473.0000	-23.8045	-0.00524826	0.67371	323.684
472.5000	-23.6807	-0.00518491	0.666916	322.293
472.0000	-23.6054	-0.00510869	0.660929	321.428
471.5000	-23.5693	-0.00500505	0.654497	320.98
471.0000	-23.5819	-0.00491559	0.647853	320.699
470.5000	-23.305	-0.00485909	0.639688	320.16
470.0000	-23.312	-0.00480341	0.631829	319.289
469.5000	-23.2654	-0.00474908	0.624274	318.168
469.0000	-23.0453	-0.00465396	0.616588	316.947
468.5000	-22.8357	-0.00455913	0.609323	315.909
468.0000	-22.5265	-0.00446184	0.602146	315.162
467.5000	-22.3723	-0.00439746	0.595281	314.717
467.0000	-21.9611	-0.00430931	0.588893	314.513
466.5000	-21.3978	-0.00422401	0.582714	314.546
466.0000	-21.3459	-0.00415956	0.576253	314.823
465.5000	-21.0413	-0.00410609	0.569056	315.226
465.0000	-20.8329	-0.00404177	0.560414	315.423
464.5000	-20.5505	-0.0039625	0.551251	315.103
464.0000	-20.5881	-0.00386934	0.542927	314.463
463.5000	-20.215	-0.00376807	0.535452	313.779
463.0000	-19.9992	-0.00371319	0.528588	313.166
462.5000	-19.7796	-0.00364839	0.521883	312.662
462.0000	-19.4858	-0.00355569	0.515284	312.331
461.5000	-19.4712	-0.00348463	0.508755	312.153
461.0000	-19.2469	-0.00343442	0.50225	312.084
460.5000	-19.1185	-0.00335914	0.495016	312.01
460.0000	-18.8149	-0.00329022	0.488211	311.858
459.5000	-18.6908	-0.00324743	0.481718	311.585
459.0000	-18.5058	-0.00319188	0.474677	311.076
458.5000	-18.1992	-0.00313968	0.468421	310.393
458.0000	-18.1721	-0.00308855	0.462442	309.623
457.5000	-17.9077	-0.00301855	0.456817	308.964
457.0000	-17.4544	-0.00294411	0.450605	308.339
456.5000	-17.0068	-0.00287693	0.443972	307.527
456.0000	-16.629	-0.00282667	0.43803	306.596
455.5000	-16.2833	-0.00276702	0.432823	305.786
455.0000	-16.0885	-0.00272853	0.428093	305.311
454.5000	-15.8337	-0.00268108	0.422496	304.929
454.0000	-15.4014	-0.00262517	0.41662	304.509
453.5000	-14.9231	-0.00257661	0.411223	304.09
453.0000	-14.5431	-0.00254187	0.406505	303.681
452.5000	-14.3735	-0.00250092	0.401877	303.281
452.0000	-14.0355	-0.00243636	0.396999	302.849
451.5000	-13.4994	-0.00239674	0.391935	302.374
451.0000	-13.0937	-0.00234895	0.387329	301.953
450.5000	-12.8527	-0.00229492	0.382928	301.674
450.0000	-12.4402	-0.00224171	0.378651	301.559
449.5000	-12.1387	-0.00219328	0.373986	301.412
449.0000	-11.9754	-0.00213032	0.369717	301.134
448.5000	-12.0573	-0.00209606	0.365937	300.928
448.0000	-11.942	-0.00204914	0.362561	301.004
447.5000	-11.842	-0.00201054	0.358288	301.148
447.0000	-11.8184	-0.00195779	0.353352	301.056
446.5000	-11.5526	-0.00190919	0.348931	300.716
446.0000	-11.4794	-0.00189151	0.344906	300.268
445.5000	-11.2646	-0.00183914	0.340786	299.779
445.0000	-11.2484	-0.00177812	0.336352	299.211
444.5000	-11.1613	-0.00172638	0.332012	298.611
444.0000	-10.8788	-0.00167501	0.328191	298.06
443.5000	-10.754	-0.00164141	0.324251	297.529
443.0000	-10.6096	-0.00157345	0.320731	297.101
442.5000	-10.5882	-0.00153192	0.317325	296.704
442.0000	-10.5159	-0.00149083	0.314306	296.358
441.5000	-10.4045	-0.00145001	0.310826	295.979
441.0000	-10.2907	-0.0014092	0.307575	295.63
440.5000	-9.9816	-0.00137921	0.30431	295.304
440.0000	-9.73339	-0.00134208	0.301057	294.975
439.5000	-9.39258	-0.00131558	0.297647	294.645
439.0000	-9.13308	-0.00127369	0.294029	294.289
438.5000	-8.44808	-0.00121784	0.29009	293.902
438.0000	-8.05737	-0.00115485	0.28616	293.522
437.5000	-7.846	-0.00110107	0.282743	293.192
437.0000	-7.86021	-0.00108438	0.279359	292.893
436.5000	-7.70601	-0.00104499	0.276347	292.678
436.0000	-7.513	-0.000995001	0.273564	292.49
435.5000	-7.21543	-0.000968307	0.2706	292.279
435.0000	-7.28261	-0.000945184	0.267361	292.015
434.5000	-7.08385	-0.000911655	0.264462	291.743
434.0000	-6.85427	-0.000868669	0.261306	291.44
433.5000	-6.81283	-0.000821551	0.258654	291.151
433.0000	-6.75525	-0.000796538	0.255912	290.842
432.5000	-6.51542	-0.000760095	0.253446	290.535
432.0000	-6.40102	-0.000743806	0.250811	290.213
431.5000	-6.21225	-0.000705632	0.24823	289.9
431.0000	-5.98196	-0.000668692	0.2457	289.603
430.5000	-6.00018	-0.00065581	0.243152	289.301
430.0000	-5.8969	-0.000649949	0.24109	289.03
429.5000	-5.89733	-0.000638759	0.23891	288.735
429.0000	-5.66492	-0.000618028	0.236318	288.418
428.5000	-5.44402	-0.000581468	0.233858	288.109
428.0000	-5.2662	-0.000568008	0.231523	287.799
427.5000	-5.15747	-0.000548222	0.229418	287.519
427.0000	-5.08164	-0.000520676	0.227425	287.225
426.5000	-4.83729	-0.000489769	0.225496	286.911
426.0000	-4.94743	-0.000484623	0.22346	286.537
425.5000	-5.1163	-0.000480934	0.221731	286.154
425.0000	-4.94676	-0.000469852	0.219938	285.76
424.5000	-4.84476	-0.000450908	0.21824	285.42
424.0000	-4.6554	-0.000424833	0.216773	285.163
423.5000	-4.58216	-0.000394093	0.215119	284.939
423.0000	-4.41731	-0.000377429	0.213506	284.726
422.5000	-4.32696	-0.000355532	0.212051	284.534
422.0000	-4.4025	-0.000333714	0.210609	284.341
421.5000	-4.44331	-0.000326078	0.209162	284.162
421.0000	-4.25306	-0.000289711	0.208031	284.006
420.5000	-4.28157	-0.000265474	0.207062	283.846
420.0000	-4.20871	-0.000251494	0.205871	283.667
419.5000	-4.1116	-0.000228493	0.204731	283.487
419.0000	-3.94031	-0.000217973	0.203657	283.317
418.5000	-3.70632	-0.000190325	0.202764	283.184
418.0000	-3.69272	-0.000178275	0.201929	283.075
417.5000	-3.26366	-0.000145465	0.20114	283.012
417.0000	-2.88019	-0.000132413	0.200142	282.98
416.5000	-2.76398	-0.000120513	0.199143	282.946
416.0000	-2.81457	-0.000124161	0.19824	282.866
415.5000	-2.78827	-0.000104706	0.197496	282.744
415.0000	-2.96577	-9.78007E-005	0.196819	282.613
414.5000	-2.98674	-9.55404E-005	0.196255	282.471
414.0000	-2.77227	-7.26359E-005	0.19581	282.347
413.5000	-2.59701	-6.02997E-005	0.195128	282.223
413.0000	-2.44528	-3.12394E-005	0.194721	282.12
412.5000	-2.21084	-4.34667E-005	0.194594	282.054
412.0000	-2.19921	-4.87237E-005	0.194208	282.006
411.5000	-2.44991	-5.40204E-005	0.194015	281.966
411.0000	-2.33718	-5.8634E-005	0.193847	281.935
410.5000	-2.4818	-5.67285E-005	0.19371	281.921
410.0000	-2.35986	-5.99381E-005	0.193513	281.918
409.5000	-2.18265	-5.50265E-005	0.193418	281.929
409.0000	-2.31534	-5.63197E-005	0.193178	281.942
408.5000	-2.39705	-6.02435E-005	0.193233	281.971
408.0000	-2.22223	-5.21918E-005	0.193282	281.981
407.5000	-2.18768	-5.90859E-005	0.193412	281.988
407.0000	-2.1006	-6.36089E-005	0.193401	281.98
406.5000	-1.93076	-5.87027E-005	0.193503	281.968
406.0000	-1.92274	-6.8488E-005	0.193767	281.946
405.5000	-2.0516	-8.32703E-005	0.193951	281.907
405.0000	-2.10008	-8.37914E-005	0.194403	281.83
404.5000	-2.28442	-9.67701E-005	0.194438	281.713
404.0000	-2.44003	-7.93487E-005	0.194804	281.564
403.5000	-2.32033	-9.13039E-005	0.195133	281.395
403.0000	-2.29095	-8.72305E-005	0.195498	281.229
402.5000	-2.33011	-8.4994E-005	0.195837	281.064
402.0000	-2.20899	-7.46E-005	0.196398	280.923
401.5000	-2.31143	-7.91656E-005	0.196949	280.776
401.0000	-2.43387	-8.7189E-005	0.19761	280.662
400.5000	-2.44946	-7.92705E-005	0.198408	280.579
400.0000	-2.47933	-8.13611E-005	0.199188	280.529
399.5000	-2.55781	-7.86421E-005	0.199929	280.488
399.0000	-2.42228	-6.41366E-005	0.200678	280.476
398.5000	-2.48212	-6.10349E-005	0.20136	280.483
398.0000	-2.38914	-4.5391E-005	0.202046	280.519
397.5000	-2.21401	-2.14091E-005	0.20278	280.579
397.0000	-2.36265	-2.50605E-005	0.203613	280.672
396.5000	-2.31615	-4.20509E-005	0.204389	280.804
396.0000	-2.24911	-4.30117E-005	0.205094	280.969
395.5000	-2.10463	-4.86099E-005	0.20584	281.168
395.0000	-1.98006	-4.20601E-005	0.2067	281.392
394.5000	-1.78837	-5.93634E-005	0.207598	281.638
394.0000	-1.70744	-5.60498E-005	0.208651	281.902
393.5000	-1.53336	-5.51476E-005	0.209485	282.161
393.0000	-1.58013	-5.73504E-005	0.210413	282.441
392.5000	-1.51273	-5.12701E-005	0.211121	282.674
392.0000	-1.38806	-7.04299E-005	0.211952	282.878
391.5000	-1.53161	-8.13945E-005	0.213025	283.08
391.0000	-1.35306	-8.50723E-005	0.214079	283.262
390.5000	-1.39663	-9.52605E-005	0.215143	283.442
390.0000	-1.32663	-0.000103889	0.216371	283.624
389.5000	-1.26893	-0.000106691	0.217723	283.791
389.0000	-1.30113	-0.000111997	0.219076	283.95
388.5000	-1.35121	-0.000119524	0.220464	284.084
388.0000	-1.34227	-0.000116788	0.221944	284.231
387.5000	-1.35554	-0.000130922	0.223485	284.379
387.0000	-1.38654	-0.000129354	0.22487	284.498
386.5000	-1.38466	-0.000119815	0.226377	284.611
386.0000	-1.42727	-0.000125682	0.227879	284.726
385.5000	-1.50319	-0.000132797	0.22956	284.833
385.0000	-1.58004	-0.000157286	0.231124	284.93
384.5000	-1.29432	-0.000146059	0.232854	285.032
384.0000	-1.41176	-0.000169123	0.234492	285.136
383.5000	-1.45954	-0.00016592	0.23608	285.238
383.0000	-1.30276	-0.000173018	0.237679	285.35
382.5000	-1.47452	-0.000197028	0.239285	285.452
382.0000	-1.45531	-0.000192926	0.241057	285.579
381.5000	-1.16903	-0.000191704	0.242655	285.693
381.0000	-1.16975	-0.00019152	0.244181	285.815
380.5000	-1.06088	-0.000213171	0.245625	285.936
380.0000	-0.85958	-0.000207529	0.247085	286.064
379.5000	-0.84541	-0.000227862	0.248598	286.194
379.0000	-0.717591	-0.000217044	0.250064	286.315
378.5000	-0.657163	-0.000220813	0.251197	286.429
378.0000	-0.459907	-0.000227767	0.252237	286.545
377.5000	-0.415681	-0.000238131	0.253395	286.649
377.0000	-0.305076	-0.000240384	0.254413	286.738
376.5000	-0.139606	-0.000245796	0.255532	286.837
376.0000	-0.32871	-0.00025974	0.256436	286.918
375.5000	-0.19137	-0.000258448	0.25756	286.999
375.0000	-0.0346953	-0.000260411	0.258542	287.078
374.5000	0.0889053	-0.000269787	0.259358	287.142
374.0000	0.0903849	-0.000265439	0.260283	287.206
373.5000	0.101306	-0.000294636	0.261059	287.259
373.0000	0.0536642	-0.000324286	0.26174	287.313
372.5000	0.124072	-0.000346943	0.2626	287.376
372.0000	0.215311	-0.000357798	0.263189	287.43
371.5000	0.449099	-0.000376736	0.26396	287.494
371.0000	0.568719	-0.000378438	0.264642	287.563
370.5000	0.529544	-0.000399525	0.265591	287.659
370.0000	0.5829	-0.000408267	0.266665	287.759
369.5000	0.44658	-0.000424978	0.267797	287.858
369.0000	0.60996	-0.000432236	0.268882	287.969
368.5000	0.66711	-0.000443828	0.270086	288.104
368.0000	0.708403	-0.000457474	0.271218	288.229
367.5000	0.85803	-0.000475933	0.272503	288.368
367.0000	0.878891	-0.000481287	0.27392	288.527
366.5000	0.923562	-0.000506715	0.275176	288.686
366.0000	1.05204	-0.000513207	0.276524	288.859
365.5000	1.17633	-0.000518698	0.277906	289.028
365.0000	1.11416	-0.000522502	0.279439	289.193
364.5000	1.13841	-0.000518632	0.281042	289.358
364.0000	1.19091	-0.000510065	0.282569	289.53
363.5000	0.985909	-0.000513163	0.284045	289.698
363.0000	1.00702	-0.000525865	0.285536	289.876
362.5000	1.06285	-0.000538873	0.286919	290.04
362.0000	1.15981	-0.000555569	0.288097	290.188
361.5000	1.29629	-0.000556157	0.2896	290.358
361.0000	1.27057	-0.000563149	0.290946	290.52
360.5000	1.50228	-0.00056533	0.29226	290.682
360.0000	1.62799	-0.000585352	0.293845	290.857
359.5000	1.66324	-0.000591292	0.295245	291.008
359.0000	1.73165	-0.000587284	0.296586	291.165
358.5000	1.88663	-0.000611599	0.297925	291.313
358.0000	2.01274	-0.000621067	0.299348	291.458
357.5000	2.07333	-0.000620865	0.300757	291.627
357.0000	2.21299	-0.000652521	0.302155	291.793
356.5000	2.36031	-0.000674174	0.30336	291.944
356.0000	2.46995	-0.000692936	0.304567	292.102
355.5000	2.69636	-0.000701869	0.306047	292.259
355.0000	2.99395	-0.00070807	0.307395	292.417
354.5000	3.03915	-0.000713943	0.308951	292.585
354.0000	3.12585	-0.000728577	0.310287	292.755
353.5000	3.01965	-0.000751465	0.311871	292.929
353.0000	3.07265	-0.000774995	0.313331	293.107
352.5000	3.14839	-0.000786603	0.314973	293.3
352.0000	3.26444	-0.000795698	0.316574	293.481
351.5000	3.43204	-0.00081324	0.31803	293.653
351.0000	3.64257	-0.000832728	0.319655	293.837
350.5000	3.70831	-0.000846059	0.321283	294.024
350.0000	3.87184	-0.000845501	0.322835	294.212
349.5000	4.02946	-0.000837952	0.324252	294.405
349.0000	4.31009	-0.000848373	0.325888	294.595
348.5000	4.53447	-0.000851414	0.327641	294.795
348.0000	4.65256	-0.00085506	0.329458	294.987
347.5000	4.87858	-0.000869277	0.331172	295.171
347.0000	4.88832	-0.000895979	0.332762	295.351
346.5000	5.07891	-0.000898308	0.334536	295.542
346.0000	5.22111	-0.000920139	0.336379	295.732
345.5000	5.58124	-0.000917046	0.338159	295.919
345.0000	5.74237	-0.000911893	0.340133	296.124
344.5000	5.94334	-0.000937138	0.341837	296.299
344.0000	6.318	-0.000954074	0.343609	296.474
343.5000	6.5587	-0.000983241	0.345316	296.654
343.0000	6.66428	-0.000968753	0.347133	296.841
342.5000	7.01825	-0.000992484	0.348823	297.021
342.0000	7.36326	-0.00101166	0.350645	297.212
341.5000	7.41147	-0.00104111	0.352615	297.405
341.0000	7.67695	-0.00104998	0.354351	297.575
340.5000	7.87886	-0.00107066	0.356077	297.747
340.0000	8.13264	-0.00108145	0.357674	297.921
339.5000	8.39661	-0.00111104	0.359313	298.109
339.0000	8.8504	-0.00113037	0.3613	298.311
338.5000	9.297	-0.00115509	0.363078	298.505
338.0000	9.66344	-0.00117823	0.364872	298.694
337.5000	10.0249	-0.00120031	0.366886	298.892
337.0000	10.24	-0.00122004	0.368623	299.095
336.5000	10.5034	-0.00125096	0.370484	299.3
336.0000	10.954	-0.00125526	0.372352	299.513
335.5000	11.1102	-0.00126859	0.374177	299.724
335.0000	11.5231	-0.00127868	0.376018	299.931
334.5000	11.7391	-0.00130088	0.37789	300.149
334.0000	11.8216	-0.00134495	0.379855	300.377
333.5000	12.2659	-0.00136781	0.381986	300.629
333.0000	12.6349	-0.00138451	0.383981	300.869
332.5000	12.7487	-0.00141521	0.386024	301.106
332.0000	13.117	-0.001451	0.388198	301.347
331.5000	13.3107	-0.0014833	0.390446	301.605
331.0000	13.6576	-0.00150624	0.392949	301.884
330.5000	13.9021	-0.00152207	0.395267	302.144
330.0000	14.3172	-0.00155239	0.397395	302.402
329.5000	14.6791	-0.00158145	0.400018	302.689
329.0000	15.2651	-0.00160381	0.402521	302.967
328.5000	15.713	-0.00164054	0.405125	303.229
328.0000	16.1004	-0.00166642	0.40745	303.465
327.5000	16.4725	-0.00170488	0.410138	303.718
327.0000	17.0047	-0.0017227	0.41276	303.971
326.5000	17.4845	-0.00177387	0.41574	304.275
326.0000	17.8579	-0.0018072	0.418475	304.578
325.5000	18.4885	-0.00182243	0.421034	304.861
325.0000	18.988	-0.00184834	0.423661	305.132
324.5000	19.4976	-0.00189058	0.426592	305.431
324.0000	20.1647	-0.00191628	0.429733	305.761
323.5000	20.6613	-0.00192581	0.432667	306.085
323.0000	20.9571	-0.00197208	0.435568	306.404
322.5000	21.3112	-0.00198942	0.438383	306.717
322.0000	21.8577	-0.00201884	0.441217	307.029
321.5000	22.081	-0.00203848	0.444157	307.353
321.0000	22.6621	-0.00206592	0.447111	307.677
320.5000	22.9496	-0.0020869	0.449939	308.003
320.0000	23.5346	-0.00210245	0.452633	308.315
319.5000	23.8032	-0.00213171	0.455464	308.648
319.0000	24.0517	-0.00215448	0.458226	309.002
318.5000	24.2301	-0.00218294	0.461337	309.368
318.0000	24.5494	-0.002196	0.464319	309.691
317.5000	25.1242	-0.00220479	0.467402	310.004
317.0000	25.3088	-0.00224779	0.470955	310.36
316.5000	25.5776	-0.00226852	0.474157	310.701
316.0000	26.0359	-0.00229031	0.477439	311.075
315.5000	26.1856	-0.0023272	0.480623	311.42
315.0000	26.6215	-0.00233898	0.484341	311.829
314.5000	27.049	-0.00235759	0.487876	312.226
314.0000	27.6479	-0.00236617	0.491623	312.633
313.5000	28.067	-0.00239082	0.495428	313.06
313.0000	28.5291	-0.00241537	0.499542	313.519
312.5000	28.9351	-0.00244287	0.503605	313.977
312.0000	29.278	-0.00247936	0.507973	314.459
311.5000	29.6072	-0.00251334	0.512482	314.955
311.0000	30.2455	-0.00251144	0.517192	315.473
310.5000	30.6903	-0.00255138	0.52232	316.045
310.0000	31.269	-0.0025657	0.527196	316.588
309.5000	31.8053	-0.00259316	0.532297	317.169
309.0000	31.9014	-0.00261071	0.537915	317.805
308.5000	32.1903	-0.00263254	0.543571	318.452
308.0000	32.6212	-0.00265902	0.549264	319.073
307.5000	33.2657	-0.00265378	0.55559	319.771
307.0000	33.8591	-0.00267054	0.561531	320.422
306.5000	34.4406	-0.00272109	0.56784	321.111
306.0000	34.8059	-0.00274858	0.574185	321.795
305.5000	34.91	-0.00278942	0.581017	322.541
305.0000	35.2797	-0.00282011	0.58759	323.257
304.5000	35.547	-0.00283785	0.594717	324.025
304.0000	35.771	-0.00283048	0.602262	324.821
303.5000	35.6286	-0.00284491	0.609124	325.587
303.0000	35.6475	-0.0028557	0.616561	326.401
302.5000	35.5826	-0.00289135	0.624055	327.218
302.0000	35.5046	-0.00289231	0.631405	328.025
301.5000	35.3156	-0.0029173	0.638782	328.843
301.0000	35.321	-0.0029194	0.646054	329.651
300.5000	35.3743	-0.00292396	0.652538	330.369
300.0000	35.1594	-0.00292407	0.660179	331.194
299.5000	34.7986	-0.00290818	0.667181	331.98
299.0000	33.9599	-0.00291975	0.674248	332.763
298.5000	33.0965	-0.00291593	0.681522	333.556
298.0000	32.5761	-0.00289058	0.688371	334.306
297.5000	31.8893	-0.00288235	0.695318	335.064
297.0000	31.1584	-0.00285784	0.701451	335.741
296.5000	30.471	-0.00282667	0.707462	336.403
296.0000	29.6763	-0.00281645	0.713419	337.038
295.5000	28.9614	-0.00280112	0.719496	337.651
295.0000	28.5742	-0.00277421	0.725192	338.239
294.5000	27.9886	-0.00274256	0.730809	338.862
294.0000	26.8653	-0.00272964	0.736613	339.522
293.5000	26.4246	-0.00270065	0.741526	340.088
293.0000	25.7054	-0.00266805	0.746712	340.684
292.5000	24.8365	-0.00262062	0.752085	341.3
292.0000	24.2592	-0.00260321	0.75722	341.892
291.5000	23.6277	-0.00255452	0.762173	342.469
291.0000	22.8125	-0.00253682	0.767122	343.056
290.5000	22.2444	-0.00249919	0.772185	343.658
290.0000	21.5171	-0.00243867	0.776989	344.243
289.5000	20.6561	-0.00241789	0.781529	344.797
289.0000	20.098	-0.00236467	0.786092	345.351
288.5000	19.6486	-0.00232882	0.791076	345.957
288.0000	19.0176	-0.00228823	0.796235	346.58
287.5000	18.4885	-0.00221648	0.801323	347.233
287.0000	17.5361	-0.00219506	0.806528	347.913
286.5000	16.4105	-0.00215298	0.811596	348.558
286.0000	15.873	-0.00212887	0.816645	349.165
285.5000	15.4387	-0.00209453	0.821938	349.787
285.0000	14.9111	-0.00203915	0.82766	350.46
284.5000	14.1501	-0.00199989	0.833054	351.096
284.0000	13.1419	-0.00195393	0.83889	351.784
283.5000	12.6716	-0.00188161	0.84472	352.49
283.0000	11.9873	-0.00185082	0.85072	353.194
282.5000	11.0521	-0.00182431	0.857131	353.951
282.0000	10.3071	-0.00179352	0.863874	354.75
281.5000	9.79022	-0.00173354	0.870577	355.535
281.0000	9.28241	-0.00168969	0.877443	356.352
280.5000	8.69845	-0.00166308	0.884926	357.237
280.0000	7.66421	-0.00161354	0.892992	358.18
279.5000	6.49238	-0.00163033	0.901239	359.153
279.0000	5.80209	-0.00159038	0.909481	360.135
278.5000	5.07015	-0.00154227	0.918535	361.22
278.0000	4.73117	-0.00149984	0.92855	362.398
277.5000	3.79634	-0.00143578	0.937888	363.517
277.0000	3.48071	-0.00136613	0.948285	364.745
276.5000	2.78828	-0.00136309	0.959095	366.021
276.0000	2.42477	-0.00132052	0.969259	367.224
275.5000	1.94127	-0.00129405	0.980801	368.597
275.0000	1.21838	-0.00127893	0.99294	370.035
274.5000	0.420189	-0.00125171	1.00537	371.522
274.0000	0.0207251	-0.00119065	1.01904	373.16
273.5000	-0.154231	-0.00118756	1.0319	374.703
273.0000	-0.487673	-0.00118532	1.04607	376.417
272.5000	-1.19734	-0.00117169	1.06071	378.202
272.0000	-2.03971	-0.00116828	1.07575	380.064
271.5000	-1.9271	-0.00114597	1.09226	382.107
271.0000	-1.91625	-0.0011212	1.10852	384.129
270.5000	-2.17404	-0.00113691	1.12569	386.245
270.0000	-2.23079	-0.0011872	1.14329	388.45
269.5000	-2.28184	-0.00114464	1.16154	390.763
269.0000	-3.10096	-0.00117657	1.17946	393.049
268.5000	-3.25532	-0.00118186	1.19903	395.558
268.0000	-3.36207	-0.00115755	1.21902	398.136
267.5000	-3.2204	-0.00119227	1.23966	400.827
267.0000	-2.86061	-0.00117834	1.26194	403.745
266.5000	-1.89607	-0.00122552	1.28476	406.765
266.0000	-1.23343	-0.00129342	1.30584	409.576
265.5000	-0.170576	-0.00128693	1.32809	412.567
265.0000	1.33015	-0.00126006	1.35172	415.783
264.5000	3.05383	-0.00133174	1.37453	418.904
264.0000	5.31049	-0.00130211	1.39767	422.082
263.5000	8.3836	-0.00136915	1.42216	425.48
263.0000	11.0166	-0.00133518	1.44445	428.624
262.5000	14.7718	-0.00130119	1.46923	432.152
262.0000	18.8724	-0.00128148	1.49332	435.599
261.5000	23.1761	-0.0013053	1.51782	439.121
261.0000	28.0563	-0.00132776	1.5417	442.554
260.5000	33.6449	-0.00135801	1.56732	446.271
260.0000	38.4792	-0.00137119	1.5937	450.122
259.5000	45.1448	-0.00140227	1.62063	454.109
259.0000	50.0868	-0.00144906	1.64863	458.234
258.5000	54.8736	-0.0015547	1.67728	462.515
258.0000	60.579	-0.00158126	1.70715	466.975
257.5000	67.799	-0.00163535	1.73647	471.359
257.0000	74.1836	-0.00173155	1.76871	476.205
256.5000	80.5488	-0.00187865	1.80048	481
256.0000	86.4764	-0.00188207	1.83506	486.248
255.5000	93.4674	-0.00193032	1.87079	491.725
255.0000	98.4095	-0.00193576	1.90801	497.445
254.5000	104.632	-0.00212763	1.94455	503.094
254.0000	109.666	-0.002148	1.98204	508.946
253.5000	115.1	-0.00230742	2.02478	515.671
253.0000	120.364	-0.00236419	2.0646	521.987
252.5000	126.163	-0.00250402	2.1252	531.719
252.0000	129.918	-0.00273074	2.17661	540.091
251.5000	132.568	-0.00279437	2.22263	547.659
251.0000	136.959	-0.00296501	2.26986	555.535
250.5000	139.159	-0.00309687	2.31821	563.686
250.0000	142.259	-0.00332039	2.36546	571.727

##### Extended Information
[Comments]
Sample name	20% S-JS after 72 hrs 1
Comment
User
Division
Company	Labo systeme complexes hors equilibre

[Detailed Information]
Creation date	10/13/2025 4:04 PM

Data array type	Linear data array * 4
Horizontal axis	Wavelength [nm]
Vertical axis(1)	CD [mdeg]
Vertical axis(2)	LD [dOD]
Vertical axis(3)	Abs
Vertical axis(4)	HT [V]
Start	700 nm
End	250 nm
Data interval	0.5 nm
Data points	901     

[Measurement Information]
Instrument name	CD Jasco
Model name	J-1500
Serial No.	A005261638

Detector	PM-539
Detector S/N	A0052PM539
  Lock-in amp.	X mode
  HT volt	Auto

Detector	EXPML-535
Detector S/N	A0001
  Lock-in amp.	X mode
  HT volt	Auto

Accessory	PTC-517
Accessory S/N	A001361646
  Temperature	19.96 C
  Control sonsor	Holder
  Monitor sensor	Holder
  Start Mode	Keep target temperature +/-0.10 deg C while 5 seconds

Measurement date	10/13/2025 4:04 PM

Overload detect	1
Photometric mode	CD, LD, Abs, HT
Measure range	700 - 250 nm
Data pitch	0.5 nm
CD scale	200 mdeg/1.0 dOD
FL scale	200 mdeg/1.0 dOD
D.I.T.	1 sec
Bandwidth	1.00 nm
Start mode	Immediately
Scanning speed	500 nm/min
Baseline correction	Baseline
Shutter control	Auto


