TITLE	20% S-JS after 72 hrs
DATA TYPE	
ORIGIN	JASCO
OWNER	
DATE	25/10/13
TIME	16:02:59
SPECTROMETER/DATA SYSTEM	
LOCALE	1033
RESOLUTION	
DELTAX	-0.5
XUNITS	NANOMETERS
YUNITS	CD [mdeg]
Y2UNITS	LD [dOD]
Y3UNITS	ABSORBANCE
Y4UNITS	HT [V]
FIRSTX	  700.0000
LASTX	  250.0000
NPOINTS	     901
FIRSTY	    -0.47600
MAXY	   147.73117
MINY	   -28.23282
XYDATA
700.0000	-0.476003	-0.00138348	0.218847	329.053
699.5000	-0.59082	-0.0013651	0.218322	328.449
699.0000	-0.562566	-0.00136229	0.217886	327.753
698.5000	0.00814843	-0.00139003	0.21752	327.031
698.0000	-0.151782	-0.00143398	0.217586	326.337
697.5000	0.0687749	-0.00144534	0.218012	325.714
697.0000	-0.299144	-0.0014311	0.218608	325.122
696.5000	-0.108501	-0.00144835	0.219232	324.615
696.0000	0.0868181	-0.00141142	0.219865	324.153
695.5000	0.148957	-0.00140709	0.220559	323.795
695.0000	0.202073	-0.00140264	0.220987	323.524
694.5000	0.578144	-0.00142413	0.221557	323.292
694.0000	0.634525	-0.0014249	0.221912	323.078
693.5000	0.955494	-0.00143074	0.222205	322.889
693.0000	1.04069	-0.00144189	0.222706	322.756
692.5000	0.908972	-0.00145563	0.223359	322.671
692.0000	0.777674	-0.00147634	0.224414	322.687
691.5000	0.854351	-0.00148454	0.225907	322.823
691.0000	0.788104	-0.00150707	0.227445	323.093
690.5000	0.60035	-0.00150155	0.22858	323.428
690.0000	0.551421	-0.00149172	0.229168	323.814
689.5000	0.413077	-0.00150339	0.229432	324.208
689.0000	0.468013	-0.00152614	0.229755	324.604
688.5000	0.40165	-0.00154589	0.22998	324.982
688.0000	0.244606	-0.00157334	0.229995	325.328
687.5000	0.120624	-0.00158911	0.230014	325.648
687.0000	0.0413824	-0.00157895	0.230177	325.921
686.5000	-0.431896	-0.00157766	0.230507	326.194
686.0000	-0.537139	-0.00157786	0.230883	326.463
685.5000	-0.555377	-0.00159573	0.231385	326.759
685.0000	-0.965008	-0.00161215	0.231838	327.072
684.5000	-1.12488	-0.00160461	0.231924	327.371
684.0000	-1.00824	-0.00162088	0.231815	327.66
683.5000	-1.16496	-0.00163413	0.231442	327.899
683.0000	-1.33831	-0.00164621	0.230942	328.073
682.5000	-1.20318	-0.00164609	0.230469	328.182
682.0000	-1.21085	-0.00166021	0.230058	328.205
681.5000	-1.01	-0.00168972	0.229809	328.184
681.0000	-0.908659	-0.00170325	0.229864	328.142
680.5000	-1.04356	-0.00170359	0.230095	328.09
680.0000	-1.2815	-0.00168942	0.230328	328.041
679.5000	-1.2406	-0.0016942	0.230608	328.012
679.0000	-1.1727	-0.00172281	0.230687	327.985
678.5000	-1.30852	-0.00174144	0.230862	327.973
678.0000	-1.13668	-0.00176196	0.230989	327.954
677.5000	-1.06746	-0.0017635	0.231216	327.953
677.0000	-0.931532	-0.00175187	0.231701	327.97
676.5000	-0.579798	-0.00175225	0.232018	328.007
676.0000	-0.469022	-0.00175063	0.232377	328.052
675.5000	-0.386932	-0.00178232	0.233012	328.116
675.0000	0.258846	-0.00179723	0.233341	328.171
674.5000	0.0539288	-0.00178836	0.233444	328.219
674.0000	0.127957	-0.00177094	0.233872	328.291
673.5000	-0.016063	-0.00176726	0.234296	328.386
673.0000	0.0768229	-0.00172073	0.234559	328.487
672.5000	0.033109	-0.00172434	0.234704	328.598
672.0000	0.330256	-0.00172593	0.234856	328.701
671.5000	0.512568	-0.00173698	0.235214	328.805
671.0000	0.259264	-0.00173257	0.23566	328.915
670.5000	0.444209	-0.00176131	0.236171	329.036
670.0000	0.739115	-0.00176239	0.236437	329.158
669.5000	0.608813	-0.00176736	0.23679	329.286
669.0000	0.530567	-0.00177761	0.237062	329.418
668.5000	0.43908	-0.00182831	0.237361	329.546
668.0000	0.196167	-0.00182985	0.237927	329.698
667.5000	0.0510368	-0.00183676	0.238222	329.84
667.0000	-0.168917	-0.0018443	0.238373	329.989
666.5000	-0.261915	-0.00182942	0.238753	330.111
666.0000	-0.323133	-0.00186991	0.239106	330.232
665.5000	-0.336388	-0.00189405	0.23922	330.315
665.0000	-0.546689	-0.00193137	0.239419	330.38
664.5000	-0.772116	-0.00197209	0.239706	330.441
664.0000	-0.661515	-0.00197191	0.240004	330.496
663.5000	-0.641216	-0.00197448	0.240225	330.531
663.0000	-0.408476	-0.0019916	0.240457	330.553
662.5000	-0.354662	-0.00197919	0.240709	330.555
662.0000	-0.532997	-0.00197513	0.240918	330.539
661.5000	-0.300946	-0.0019903	0.241137	330.503
661.0000	0.100738	-0.00198184	0.241253	330.434
660.5000	-0.199162	-0.00198238	0.241401	330.331
660.0000	0.231603	-0.00197634	0.241352	330.191
659.5000	0.526973	-0.00196293	0.241369	330.029
659.0000	0.491534	-0.00199907	0.241566	329.821
658.5000	0.310975	-0.00201062	0.241677	329.595
658.0000	0.62822	-0.00200655	0.241709	329.361
657.5000	0.623699	-0.00200933	0.242091	329.117
657.0000	0.825646	-0.00203256	0.242522	328.897
656.5000	0.731774	-0.00203024	0.242915	328.684
656.0000	0.668548	-0.00205445	0.243471	328.5
655.5000	0.848491	-0.00205482	0.244108	328.355
655.0000	0.971108	-0.00206754	0.244825	328.241
654.5000	0.733143	-0.00206034	0.245512	328.161
654.0000	0.601567	-0.00209846	0.246202	328.106
653.5000	0.785588	-0.00210528	0.24686	328.091
653.0000	0.159404	-0.00210556	0.247658	328.116
652.5000	-0.399411	-0.0021363	0.248244	328.17
652.0000	-0.36512	-0.00214664	0.24901	328.263
651.5000	-0.760426	-0.00217214	0.249894	328.401
651.0000	-0.676387	-0.00219496	0.250756	328.583
650.5000	-0.208066	-0.00216996	0.251702	328.805
650.0000	-0.0636619	-0.00216673	0.252526	329.044
649.5000	-0.206665	-0.00217136	0.253358	329.295
649.0000	-0.155569	-0.00218569	0.254041	329.533
648.5000	0.169325	-0.00218097	0.254512	329.762
648.0000	0.286297	-0.00217969	0.254972	329.967
647.5000	0.379281	-0.00222402	0.255362	330.142
647.0000	0.425126	-0.00221782	0.255757	330.294
646.5000	0.50135	-0.00223159	0.256082	330.405
646.0000	0.551632	-0.00223888	0.256435	330.476
645.5000	0.686288	-0.00223555	0.256939	330.526
645.0000	0.983241	-0.00221365	0.257411	330.548
644.5000	1.45755	-0.00224997	0.25804	330.548
644.0000	1.93826	-0.00226368	0.258561	330.531
643.5000	1.91835	-0.00227819	0.259064	330.497
643.0000	2.14248	-0.00229922	0.259618	330.446
642.5000	2.10901	-0.00233068	0.260205	330.388
642.0000	2.084	-0.0023548	0.260749	330.313
641.5000	1.77322	-0.00240291	0.261219	330.233
641.0000	1.84986	-0.0024082	0.261767	330.146
640.5000	1.82984	-0.00243998	0.262445	330.071
640.0000	1.46548	-0.00245567	0.26321	329.999
639.5000	1.49933	-0.002437	0.264091	329.925
639.0000	1.55517	-0.002447	0.264946	329.859
638.5000	1.28749	-0.00248065	0.265803	329.799
638.0000	1.54467	-0.00250861	0.266633	329.752
637.5000	1.37334	-0.00255557	0.267481	329.715
637.0000	1.38372	-0.00258649	0.268423	329.694
636.5000	1.59928	-0.00258754	0.269316	329.69
636.0000	1.58751	-0.00257957	0.270255	329.697
635.5000	1.8049	-0.00258368	0.271223	329.713
635.0000	1.92678	-0.00261871	0.272269	329.731
634.5000	1.66969	-0.00264594	0.273168	329.746
634.0000	1.62516	-0.00265258	0.274069	329.768
633.5000	1.77864	-0.00268291	0.275011	329.792
633.0000	1.73771	-0.002708	0.276007	329.815
632.5000	1.9986	-0.00272281	0.27715	329.835
632.0000	2.13388	-0.00274718	0.27827	329.854
631.5000	2.20021	-0.00277611	0.279309	329.866
631.0000	2.1138	-0.00280668	0.280265	329.871
630.5000	2.22718	-0.00283787	0.281449	329.873
630.0000	2.15425	-0.00288803	0.282663	329.875
629.5000	2.38359	-0.00288786	0.284077	329.889
629.0000	2.83529	-0.00289136	0.285268	329.892
628.5000	2.88505	-0.00290578	0.286494	329.913
628.0000	2.82487	-0.0029363	0.28787	329.928
627.5000	2.90071	-0.00298346	0.289268	329.954
627.0000	2.76934	-0.00300495	0.290611	329.997
626.5000	2.65542	-0.00300121	0.292016	330.059
626.0000	3.10357	-0.00302045	0.293542	330.147
625.5000	3.07494	-0.00303329	0.295142	330.256
625.0000	3.4729	-0.00302589	0.296735	330.385
624.5000	3.66299	-0.00304986	0.298369	330.531
624.0000	3.44033	-0.0030849	0.299882	330.691
623.5000	3.59851	-0.00309449	0.301568	330.873
623.0000	3.80415	-0.00314033	0.303213	331.06
622.5000	3.93927	-0.0031468	0.304854	331.273
622.0000	4.36698	-0.00318081	0.306503	331.5
621.5000	4.59484	-0.00316288	0.308242	331.743
621.0000	4.88952	-0.00320433	0.309828	331.992
620.5000	4.79433	-0.00320173	0.311427	332.243
620.0000	4.99571	-0.00323995	0.313131	332.514
619.5000	5.32024	-0.00326889	0.31511	332.856
619.0000	5.58639	-0.00328014	0.317164	333.208
618.5000	5.74503	-0.00332571	0.319298	333.571
618.0000	6.06422	-0.00334148	0.321436	333.911
617.5000	6.17006	-0.00338938	0.323407	334.234
617.0000	6.43161	-0.00343841	0.325456	334.57
616.5000	6.52303	-0.00347193	0.327492	334.9
616.0000	6.80484	-0.0034794	0.329388	335.212
615.5000	7.21329	-0.00350691	0.331461	335.528
615.0000	7.44827	-0.00356502	0.333742	335.853
614.5000	7.70662	-0.00357793	0.335948	336.172
614.0000	7.76943	-0.00361303	0.338069	336.476
613.5000	7.9216	-0.00367175	0.340175	336.784
613.0000	7.9939	-0.00369578	0.342481	337.101
612.5000	8.09616	-0.00378916	0.344964	337.424
612.0000	8.06725	-0.00382275	0.34765	337.74
611.5000	8.18788	-0.00386277	0.350238	338.027
611.0000	8.40306	-0.00390068	0.35267	338.314
610.5000	8.76572	-0.00393476	0.355271	338.611
610.0000	8.85235	-0.00396592	0.357812	338.89
609.5000	9.2912	-0.00401819	0.360519	339.189
609.0000	9.85137	-0.00404429	0.363219	339.476
608.5000	10.1486	-0.00411311	0.366193	339.78
608.0000	10.5033	-0.00415788	0.369128	340.059
607.5000	10.7202	-0.00421112	0.372209	340.335
607.0000	10.9149	-0.00424322	0.375551	340.646
606.5000	11.296	-0.00429305	0.3787	340.957
606.0000	11.7504	-0.00435002	0.382239	341.289
605.5000	12.1635	-0.00439223	0.385988	341.617
605.0000	12.7422	-0.00444165	0.389727	341.946
604.5000	13.3757	-0.00451118	0.393464	342.269
604.0000	14.0869	-0.00453332	0.397196	342.595
603.5000	14.771	-0.00462199	0.401028	342.922
603.0000	15.2674	-0.00465867	0.404926	343.254
602.5000	15.9485	-0.00468922	0.409163	343.614
602.0000	16.8511	-0.00473239	0.413343	343.959
601.5000	17.8294	-0.00479394	0.417768	344.333
601.0000	18.4475	-0.00484462	0.422516	344.719
600.5000	18.9924	-0.00490637	0.427308	345.103
600.0000	20.0485	-0.00496275	0.432285	345.492
599.5000	20.9729	-0.00504834	0.437637	345.92
599.0000	21.9044	-0.00512429	0.443117	346.342
598.5000	22.8679	-0.0052361	0.448903	346.756
598.0000	24.2641	-0.00531552	0.454452	347.166
597.5000	25.2198	-0.00537388	0.460069	347.601
597.0000	26.2952	-0.00542179	0.466217	348.082
596.5000	27.53	-0.00550664	0.472302	348.543
596.0000	29.1369	-0.00557579	0.47868	349.032
595.5000	30.5147	-0.00564949	0.485103	349.541
595.0000	32.0463	-0.00570608	0.491738	350.038
594.5000	33.4194	-0.00580075	0.498929	350.6
594.0000	35.2142	-0.0059181	0.506805	351.229
593.5000	36.6592	-0.00600619	0.514745	351.843
593.0000	38.3127	-0.00608327	0.522998	352.504
592.5000	40.1476	-0.00616682	0.531703	353.23
592.0000	41.9585	-0.00627898	0.540243	353.977
591.5000	43.6523	-0.00634032	0.548368	354.682
591.0000	45.9685	-0.00644254	0.556985	355.457
590.5000	47.9861	-0.00649475	0.565773	356.275
590.0000	50.134	-0.00658771	0.575207	357.154
589.5000	52.7322	-0.00665345	0.584767	358.059
589.0000	55.1095	-0.0067378	0.594586	358.984
588.5000	56.9652	-0.00682185	0.60512	359.982
588.0000	59.3958	-0.0069504	0.616054	361.031
587.5000	61.9754	-0.00703136	0.627148	362.124
587.0000	64.9369	-0.00712528	0.638774	363.299
586.5000	67.934	-0.00720709	0.650251	364.445
586.0000	70.6046	-0.00727297	0.661719	365.592
585.5000	73.4557	-0.00735699	0.672866	366.741
585.0000	76.3356	-0.00745238	0.684311	367.929
584.5000	79.2487	-0.00753701	0.695081	369.048
584.0000	82.1858	-0.00760837	0.706661	370.248
583.5000	84.8406	-0.00765562	0.71877	371.503
583.0000	87.9665	-0.00776314	0.731546	372.822
582.5000	90.7151	-0.00780926	0.74423	374.142
582.0000	93.6197	-0.00788206	0.756718	375.422
581.5000	95.8591	-0.00798185	0.769451	376.738
581.0000	98.2342	-0.00805872	0.78207	378.038
580.5000	101.15	-0.00814542	0.794102	379.311
580.0000	104.035	-0.00816376	0.805896	380.535
579.5000	106.296	-0.00823131	0.817423	381.719
579.0000	107.717	-0.00826304	0.828447	382.865
578.5000	109.579	-0.00832802	0.839012	383.947
578.0000	111.519	-0.00838817	0.849262	385.005
577.5000	112.516	-0.0084322	0.859704	386.079
577.0000	113.626	-0.00847913	0.869579	387.052
576.5000	114.704	-0.00853876	0.879625	388.059
576.0000	116.329	-0.00856634	0.888443	388.949
575.5000	117.743	-0.00855555	0.896845	389.774
575.0000	118.012	-0.00856029	0.903948	390.481
574.5000	118.197	-0.00852573	0.911054	391.187
574.0000	118.134	-0.00859287	0.917325	391.785
573.5000	118.452	-0.00858228	0.922896	392.318
573.0000	118.777	-0.00859263	0.928057	392.808
572.5000	118.863	-0.00856085	0.932403	393.177
572.0000	118.102	-0.00858365	0.936595	393.528
571.5000	117.831	-0.00860462	0.940186	393.803
571.0000	117.252	-0.0085825	0.943235	394.004
570.5000	116.74	-0.00858243	0.945677	394.153
570.0000	115.443	-0.00856409	0.94749	394.237
569.5000	114.468	-0.0085413	0.948747	394.24
569.0000	114.052	-0.0085356	0.949194	394.162
568.5000	113.595	-0.00847305	0.949398	394.048
568.0000	112.796	-0.00843208	0.949058	393.835
567.5000	110.848	-0.008439	0.94834	393.579
567.0000	109.535	-0.00846141	0.947518	393.333
566.5000	108.836	-0.00844698	0.946197	393.006
566.0000	107.965	-0.00843743	0.944677	392.654
565.5000	106.819	-0.00839653	0.943128	392.297
565.0000	106.062	-0.00841707	0.941312	391.896
564.5000	104.996	-0.00835654	0.939362	391.509
564.0000	104.241	-0.00834074	0.937311	391.111
563.5000	103.908	-0.00827676	0.93536	390.709
563.0000	103.191	-0.00827216	0.933242	390.311
562.5000	102.373	-0.00826649	0.931434	389.915
562.0000	102.436	-0.00822135	0.929754	389.535
561.5000	102.366	-0.00817966	0.927964	389.128
561.0000	101.675	-0.00816264	0.926442	388.748
560.5000	100.993	-0.00810629	0.925218	388.41
560.0000	100.587	-0.00810277	0.924124	388.125
559.5000	100.45	-0.00810928	0.923423	387.857
559.0000	100.554	-0.00811865	0.923063	387.631
558.5000	100.565	-0.00809993	0.922894	387.439
558.0000	100.506	-0.00812502	0.923068	387.302
557.5000	101.461	-0.00809789	0.923643	387.211
557.0000	101.855	-0.0080908	0.924702	387.169
556.5000	102.091	-0.00807431	0.926246	387.177
556.0000	102.479	-0.00810681	0.928314	387.229
555.5000	102.708	-0.00813627	0.930921	387.359
555.0000	103.154	-0.00814226	0.933993	387.533
554.5000	104.149	-0.00814328	0.937469	387.773
554.0000	104.852	-0.00815375	0.941512	388.077
553.5000	106.068	-0.00817636	0.945434	388.367
553.0000	107.404	-0.00822291	0.949806	388.732
552.5000	108.634	-0.00825968	0.954712	389.159
552.0000	110.462	-0.0083388	0.960353	389.632
551.5000	112.099	-0.00836662	0.966199	390.141
551.0000	113.801	-0.00833835	0.972761	390.755
550.5000	115.886	-0.00833793	0.979737	391.384
550.0000	117.994	-0.00832952	0.987564	392.113
549.5000	119.903	-0.00835867	0.995168	392.833
549.0000	121.713	-0.00841637	1.00323	393.621
548.5000	123.995	-0.00843125	1.0118	394.482
548.0000	125.415	-0.00846879	1.02122	395.402
547.5000	127.461	-0.00850441	1.03049	396.338
547.0000	129.734	-0.00854189	1.04025	397.335
546.5000	131.736	-0.00857674	1.05001	398.357
546.0000	133.727	-0.00865094	1.0601	399.428
545.5000	135.431	-0.00873497	1.07019	400.487
545.0000	137.002	-0.00878388	1.08006	401.555
544.5000	138.132	-0.00878111	1.09058	402.665
544.0000	139.346	-0.00881727	1.10089	403.782
543.5000	140.52	-0.00884533	1.1113	404.908
543.0000	142.178	-0.00892985	1.12171	406.035
542.5000	143.275	-0.00898571	1.13216	407.161
542.0000	144.093	-0.00907296	1.14258	408.261
541.5000	145.19	-0.00916886	1.15287	409.387
541.0000	145.703	-0.00921431	1.16305	410.473
540.5000	145.971	-0.00923673	1.17333	411.566
540.0000	147.016	-0.00925239	1.18313	412.589
539.5000	146.956	-0.00930731	1.19206	413.549
539.0000	147.731	-0.00933582	1.20124	414.534
538.5000	147.721	-0.00935126	1.21011	415.459
538.0000	147.517	-0.00935561	1.21789	416.259
537.5000	147.553	-0.00932564	1.22563	417.045
537.0000	146.873	-0.00932018	1.2331	417.778
536.5000	146.431	-0.00930471	1.23946	418.394
536.0000	145.472	-0.00935834	1.24564	418.971
535.5000	143.822	-0.00939746	1.25108	419.469
535.0000	141.668	-0.00938873	1.2562	419.911
534.5000	140.043	-0.00941033	1.26042	420.232
534.0000	138.173	-0.00942142	1.26407	420.53
533.5000	136.448	-0.00939669	1.26713	420.754
533.0000	134.708	-0.00940148	1.26977	420.888
532.5000	132.938	-0.00942232	1.27181	420.98
532.0000	131.212	-0.00943879	1.27353	421.026
531.5000	129.171	-0.00945783	1.27499	421.022
531.0000	126.677	-0.00947568	1.27591	420.923
530.5000	124.129	-0.0095009	1.27627	420.759
530.0000	121.501	-0.00949996	1.27612	420.53
529.5000	118.609	-0.0095447	1.27592	420.292
529.0000	116.501	-0.00955745	1.27519	420.005
528.5000	114.078	-0.00955545	1.27434	419.716
528.0000	111.887	-0.00959176	1.27332	419.431
527.5000	109.346	-0.00957527	1.27189	419.07
527.0000	107.299	-0.0095353	1.27023	418.648
526.5000	105.165	-0.00949728	1.26837	418.228
526.0000	102.987	-0.00943727	1.26636	417.775
525.5000	101.162	-0.00940274	1.26434	417.312
525.0000	98.6798	-0.00940639	1.26222	416.86
524.5000	96.7019	-0.00940565	1.26024	416.42
524.0000	94.4909	-0.00938948	1.25831	415.996
523.5000	92.1103	-0.00936984	1.2564	415.572
523.0000	90.2562	-0.00934726	1.25461	415.16
522.5000	89.372	-0.00928661	1.25314	414.807
522.0000	87.8438	-0.00928983	1.25176	414.458
521.5000	86.287	-0.00931007	1.2504	414.124
521.0000	84.7337	-0.00927356	1.24902	413.787
520.5000	83.5645	-0.00923637	1.24788	413.481
520.0000	82.424	-0.00920854	1.24694	413.189
519.5000	81.3156	-0.00919387	1.2463	412.907
519.0000	80.5451	-0.00919662	1.24601	412.673
518.5000	79.3128	-0.0091877	1.24595	412.5
518.0000	78.3827	-0.00920952	1.24614	412.368
517.5000	76.8455	-0.00920986	1.24639	412.264
517.0000	75.4331	-0.0092089	1.24681	412.165
516.5000	74.2799	-0.00919773	1.24734	412.088
516.0000	73.2294	-0.00917447	1.248	412.031
515.5000	72.2355	-0.0091023	1.24865	411.995
515.0000	70.1606	-0.00909515	1.2492	411.952
514.5000	68.9186	-0.00905897	1.25004	411.936
514.0000	67.4943	-0.00913098	1.25092	411.912
513.5000	65.7804	-0.00910612	1.25193	411.903
513.0000	64.2931	-0.0091144	1.25293	411.889
512.5000	61.968	-0.00912811	1.2539	411.886
512.0000	60.0323	-0.00917532	1.25466	411.86
511.5000	58.015	-0.00920655	1.25528	411.836
511.0000	55.432	-0.00921702	1.25568	411.778
510.5000	53.8916	-0.00924699	1.25585	411.664
510.0000	51.7148	-0.00922295	1.2557	411.48
509.5000	49.5485	-0.00921821	1.25515	411.221
509.0000	46.7768	-0.00925457	1.25426	410.928
508.5000	43.8963	-0.00924506	1.25327	410.632
508.0000	41.0055	-0.0093055	1.25194	410.308
507.5000	37.6636	-0.00935436	1.24999	409.94
507.0000	35.5415	-0.00935696	1.24784	409.552
506.5000	32.9953	-0.0093659	1.24525	409.116
506.0000	30.6575	-0.0093662	1.24245	408.644
505.5000	28.0983	-0.00941429	1.23887	408.089
505.0000	25.3301	-0.00944511	1.235	407.504
504.5000	22.4522	-0.00940262	1.23017	406.778
504.0000	19.5033	-0.00943773	1.22514	406.01
503.5000	16.1607	-0.00942592	1.21954	405.175
503.0000	13.4955	-0.00938201	1.21303	404.216
502.5000	11.2016	-0.00936311	1.20664	403.277
502.0000	8.69885	-0.00936979	1.19943	402.259
501.5000	6.25849	-0.0093548	1.19207	401.219
501.0000	4.26343	-0.00931113	1.18379	400.024
500.5000	2.04721	-0.00928876	1.17511	398.683
500.0000	-0.388591	-0.00923456	1.16581	397.16
499.5000	-2.63513	-0.00920659	1.15591	395.438
499.0000	-4.69128	-0.00916046	1.14518	393.46
498.5000	-6.91742	-0.00912696	1.13454	391.444
498.0000	-9.10677	-0.00907461	1.12412	389.447
497.5000	-11.0613	-0.00901004	1.11343	387.513
497.0000	-13.008	-0.00890854	1.10314	385.849
496.5000	-14.5843	-0.00884191	1.09182	384.238
496.0000	-16.411	-0.00877734	1.08061	382.725
495.5000	-17.3333	-0.00872333	1.06872	381.163
495.0000	-18.6859	-0.00866546	1.05738	379.674
494.5000	-20.1723	-0.0086264	1.04605	378.221
494.0000	-21.3958	-0.00852051	1.03525	376.853
493.5000	-22.2655	-0.00841582	1.02398	375.437
493.0000	-23.7458	-0.00835243	1.01341	374.139
492.5000	-24.7359	-0.00831851	1.00235	372.824
492.0000	-25.6248	-0.00825881	0.990356	371.431
491.5000	-26.0915	-0.00814131	0.979244	370.201
491.0000	-26.7566	-0.00805987	0.968227	369.057
490.5000	-27.1716	-0.0079719	0.957511	367.978
490.0000	-27.5849	-0.00793821	0.94649	366.849
489.5000	-27.956	-0.00785493	0.935783	365.617
489.0000	-27.9711	-0.00778655	0.924343	364.063
488.5000	-28.2328	-0.00772602	0.913941	362.466
488.0000	-28.1003	-0.00764609	0.903873	360.79
487.5000	-27.9264	-0.00756848	0.894048	359.052
487.0000	-27.9123	-0.00744346	0.884999	357.438
486.5000	-27.871	-0.0073531	0.875896	355.895
486.0000	-27.8359	-0.00726835	0.867502	354.622
485.5000	-27.2615	-0.00718715	0.859301	353.5
485.0000	-27.4358	-0.00714086	0.850714	352.413
484.5000	-27.3001	-0.00706089	0.842515	351.408
484.0000	-27.06	-0.00696023	0.833837	350.421
483.5000	-26.6554	-0.00687907	0.82575	349.557
483.0000	-26.4836	-0.00681345	0.8174	348.708
482.5000	-26.0513	-0.0067356	0.810202	348.001
482.0000	-25.9679	-0.00667316	0.803199	347.35
481.5000	-25.8159	-0.00659174	0.796005	346.717
481.0000	-25.414	-0.00652122	0.788954	346.107
480.5000	-25.3433	-0.00645791	0.781614	345.426
480.0000	-25.3345	-0.00638962	0.773306	344.421
479.5000	-25.3741	-0.00631881	0.765633	343.164
479.0000	-25.4753	-0.00625502	0.759175	341.983
478.5000	-25.3172	-0.00619542	0.753659	341.161
478.0000	-25.1698	-0.00615249	0.747265	340.396
477.5000	-25.192	-0.00609641	0.740418	339.528
477.0000	-25.6411	-0.00604638	0.732983	338.401
476.5000	-25.4852	-0.00597139	0.724638	336.885
476.0000	-25.422	-0.00589429	0.716639	335.26
475.5000	-25.2501	-0.00583035	0.708817	333.499
475.0000	-25.6952	-0.00578516	0.700664	331.576
474.5000	-25.842	-0.00572998	0.692823	329.57
474.0000	-25.7039	-0.00567293	0.685227	327.429
473.5000	-25.778	-0.00558949	0.677879	325.255
473.0000	-25.8889	-0.00551676	0.67113	323.424
472.5000	-25.9569	-0.00540553	0.664249	322.026
472.0000	-26.0768	-0.00531811	0.657971	321.132
471.5000	-26.0725	-0.00523147	0.651277	320.658
471.0000	-25.9635	-0.00516481	0.644802	320.394
470.5000	-25.8515	-0.00511293	0.636855	319.877
470.0000	-25.7624	-0.0050459	0.629164	319.024
469.5000	-25.5174	-0.00499162	0.621743	317.917
469.0000	-25.0196	-0.00490178	0.614129	316.703
468.5000	-24.7997	-0.00482552	0.606812	315.661
468.0000	-24.3677	-0.00474942	0.599587	314.91
467.5000	-24.2662	-0.00467608	0.592752	314.468
467.0000	-23.7576	-0.00460297	0.586442	314.272
466.5000	-23.1709	-0.0045055	0.580387	314.317
466.0000	-22.8709	-0.00441857	0.573945	314.596
465.5000	-22.6093	-0.00434871	0.566688	314.993
465.0000	-22.2284	-0.00426188	0.557955	315.18
464.5000	-21.9013	-0.00421343	0.548941	314.875
464.0000	-21.8426	-0.00415073	0.540786	314.253
463.5000	-21.58	-0.00409264	0.533535	313.591
463.0000	-21.4454	-0.00402779	0.526635	312.975
462.5000	-21.0864	-0.00396615	0.519809	312.46
462.0000	-20.5312	-0.00387425	0.51307	312.114
461.5000	-20.2238	-0.00378803	0.506573	311.94
461.0000	-19.8521	-0.00372193	0.500238	311.887
460.5000	-19.6822	-0.00363822	0.49319	311.832
460.0000	-19.4653	-0.00355382	0.486363	311.678
459.5000	-19.2041	-0.0034959	0.479878	311.405
459.0000	-18.8679	-0.00341093	0.472999	310.912
458.5000	-18.5585	-0.00334899	0.466588	310.215
458.0000	-18.5027	-0.00329053	0.460815	309.465
457.5000	-18.073	-0.00321677	0.455197	308.807
457.0000	-17.7125	-0.00315194	0.44909	308.193
456.5000	-17.2787	-0.00309345	0.442676	307.402
456.0000	-16.8365	-0.00301756	0.436678	306.466
455.5000	-16.5622	-0.00295383	0.431337	305.644
455.0000	-16.0044	-0.0028812	0.426513	305.159
454.5000	-15.564	-0.00281893	0.421	304.786
454.0000	-15.2395	-0.00274769	0.415368	304.39
453.5000	-14.9433	-0.00272347	0.4101	303.982
453.0000	-14.8475	-0.00269983	0.405359	303.572
452.5000	-14.8153	-0.0026492	0.40049	303.149
452.0000	-14.4828	-0.00262209	0.395601	302.716
451.5000	-14.0588	-0.00258142	0.390859	302.272
451.0000	-13.8332	-0.00252629	0.386407	301.866
450.5000	-13.8181	-0.00247225	0.382082	301.594
450.0000	-13.7372	-0.00243725	0.377729	301.471
449.5000	-13.5972	-0.00241371	0.372889	301.308
449.0000	-13.4048	-0.00237392	0.368686	301.036
448.5000	-13.4588	-0.00231141	0.364969	300.836
448.0000	-13.5002	-0.0022864	0.361531	300.906
447.5000	-13.3401	-0.00223663	0.357489	301.072
447.0000	-13.2281	-0.00217883	0.352667	300.991
446.5000	-12.91	-0.00212965	0.348325	300.659
446.0000	-12.6901	-0.00208251	0.3443	300.21
445.5000	-12.4286	-0.00203331	0.340094	299.714
445.0000	-12.3013	-0.0019722	0.335526	299.134
444.5000	-12.1024	-0.00192551	0.331201	298.535
444.0000	-11.8674	-0.00187208	0.327257	297.973
443.5000	-11.9423	-0.00182374	0.323369	297.446
443.0000	-11.7388	-0.00178516	0.319675	297.002
442.5000	-11.4027	-0.00174136	0.316131	296.592
442.0000	-11.1101	-0.00169712	0.313069	296.243
441.5000	-10.8705	-0.00166525	0.309576	295.862
441.0000	-10.6151	-0.00161601	0.306369	295.517
440.5000	-10.3432	-0.00157136	0.303003	295.182
440.0000	-10.0268	-0.00154569	0.299526	294.832
439.5000	-9.68543	-0.00149151	0.295971	294.489
439.0000	-9.58368	-0.00146277	0.292293	294.128
438.5000	-9.21278	-0.00142011	0.288476	293.752
438.0000	-9.0543	-0.00138229	0.28445	293.363
437.5000	-8.81046	-0.00133214	0.280865	293.018
437.0000	-8.72658	-0.00128956	0.277458	292.717
436.5000	-8.54577	-0.00125484	0.274555	292.512
436.0000	-8.18933	-0.00118954	0.271698	292.317
435.5000	-7.83927	-0.00116269	0.268717	292.105
435.0000	-7.52951	-0.00111009	0.265503	291.843
434.5000	-7.31984	-0.00107392	0.2624	291.552
434.0000	-7.33434	-0.00103885	0.259279	291.253
433.5000	-7.09844	-0.000991606	0.256567	290.958
433.0000	-7.037	-0.000943155	0.253766	290.644
432.5000	-6.87002	-0.000914798	0.251419	290.348
432.0000	-6.78112	-0.000875307	0.248914	290.039
431.5000	-6.51209	-0.00085457	0.246379	289.73
431.0000	-6.01501	-0.000803797	0.24378	289.426
430.5000	-6.10878	-0.000785957	0.241294	289.13
430.0000	-5.88468	-0.000779095	0.239194	288.857
429.5000	-5.8173	-0.000756648	0.236951	288.556
429.0000	-5.70833	-0.000727561	0.234471	288.249
428.5000	-5.45791	-0.00069951	0.232026	287.941
428.0000	-5.45014	-0.000687771	0.229755	287.637
427.5000	-5.43655	-0.0006773	0.227771	287.369
427.0000	-5.50128	-0.000645626	0.225885	287.084
426.5000	-5.39855	-0.000621614	0.223888	286.764
426.0000	-5.34082	-0.000602116	0.221981	286.402
425.5000	-5.29537	-0.000592059	0.2202	286.015
425.0000	-5.19746	-0.000573116	0.218501	285.63
424.5000	-4.96675	-0.000554585	0.21688	285.297
424.0000	-4.91247	-0.000545118	0.215415	285.04
423.5000	-4.82154	-0.000518467	0.213839	284.823
423.0000	-4.73532	-0.000489962	0.21229	284.616
422.5000	-4.84745	-0.000479001	0.210881	284.428
422.0000	-4.62709	-0.000465465	0.209437	284.235
421.5000	-4.63068	-0.00046102	0.20803	284.06
421.0000	-4.5453	-0.000440411	0.207032	283.916
420.5000	-4.4194	-0.000419538	0.20603	283.753
420.0000	-4.42518	-0.00039699	0.204949	283.584
419.5000	-4.169	-0.000378206	0.20382	283.405
419.0000	-3.88777	-0.000367559	0.202862	283.245
418.5000	-3.63368	-0.000341649	0.201946	283.111
418.0000	-3.53437	-0.000336029	0.201213	283.011
417.5000	-3.26713	-0.000309107	0.200344	282.94
417.0000	-3.11367	-0.000320315	0.199489	282.921
416.5000	-3.10931	-0.000318951	0.198696	282.905
416.0000	-3.27599	-0.000319792	0.197956	282.84
415.5000	-3.1731	-0.000297143	0.197277	282.724
415.0000	-3.25577	-0.000289806	0.196684	282.601
414.5000	-3.0796	-0.000267868	0.196278	282.473
414.0000	-2.88418	-0.000234922	0.195946	282.359
413.5000	-2.83552	-0.000203837	0.195518	282.258
413.0000	-2.76114	-0.000184778	0.1951	282.154
412.5000	-2.68995	-0.000189708	0.194881	282.08
412.0000	-2.77637	-0.000182704	0.194521	282.034
411.5000	-3.05966	-0.000169858	0.194353	281.997
411.0000	-2.91597	-0.000167391	0.194148	281.962
410.5000	-3.05003	-0.000165678	0.193904	281.939
410.0000	-2.86806	-0.000165564	0.193852	281.948
409.5000	-2.88748	-0.000157607	0.193843	281.967
409.0000	-3.02434	-0.000170654	0.19391	282.008
408.5000	-2.84432	-0.000148956	0.193895	282.03
408.0000	-2.86518	-0.000144546	0.193778	282.025
407.5000	-2.70523	-0.000138396	0.193668	282.011
407.0000	-2.61463	-0.000139495	0.193785	282.015
406.5000	-2.50029	-0.000139622	0.193829	281.997
406.0000	-2.77497	-0.000154659	0.194046	281.971
405.5000	-2.75651	-0.000175107	0.194044	281.915
405.0000	-2.72096	-0.000168515	0.194297	281.82
404.5000	-2.68469	-0.000171775	0.194505	281.719
404.0000	-2.62835	-0.000157981	0.194949	281.577
403.5000	-2.41598	-0.000168606	0.195154	281.396
403.0000	-2.21828	-0.000163869	0.195595	281.237
402.5000	-2.43163	-0.000176393	0.195976	281.076
402.0000	-2.48141	-0.000163931	0.196512	280.933
401.5000	-2.79603	-0.000181418	0.196889	280.771
401.0000	-2.73092	-0.000172531	0.197431	280.646
400.5000	-2.7428	-0.00018399	0.198212	280.561
400.0000	-2.67185	-0.000180859	0.198946	280.507
399.5000	-2.70588	-0.00018141	0.199679	280.466
399.0000	-2.64703	-0.000189482	0.200326	280.444
398.5000	-2.54267	-0.000182754	0.201006	280.451
398.0000	-2.41793	-0.000173794	0.20176	280.493
397.5000	-2.39641	-0.00016446	0.20252	280.555
397.0000	-2.40778	-0.000161388	0.203263	280.641
396.5000	-2.35927	-0.000191988	0.203984	280.767
396.0000	-2.35817	-0.00019397	0.204629	280.927
395.5000	-2.32833	-0.000203298	0.205294	281.119
395.0000	-2.50238	-0.000211664	0.206183	281.346
394.5000	-2.36278	-0.000212153	0.207131	281.596
394.0000	-2.22514	-0.000222487	0.208123	281.854
393.5000	-2.05123	-0.000216191	0.209084	282.125
393.0000	-2.02445	-0.000226773	0.20991	282.396
392.5000	-1.67735	-0.00022853	0.210506	282.619
392.0000	-1.51651	-0.000232541	0.211404	282.828
391.5000	-1.58154	-0.000233976	0.212427	283.026
391.0000	-1.47807	-0.000224459	0.213555	283.215
390.5000	-1.50615	-0.000209776	0.214582	283.392
390.0000	-1.55998	-0.000229241	0.215539	283.549
389.5000	-1.47867	-0.00023559	0.216796	283.707
389.0000	-1.32969	-0.000232514	0.218171	283.868
388.5000	-1.30894	-0.000234873	0.219806	284.025
388.0000	-1.17413	-0.000227773	0.221342	284.177
387.5000	-1.30155	-0.000224351	0.222711	284.309
387.0000	-1.25523	-0.000229818	0.22418	284.435
386.5000	-1.25858	-0.000235476	0.225567	284.538
386.0000	-1.11925	-0.000238109	0.22695	284.642
385.5000	-1.19922	-0.000257347	0.228558	284.742
385.0000	-1.12818	-0.000251045	0.230202	284.846
384.5000	-1.20089	-0.000259065	0.231822	284.939
384.0000	-1.49318	-0.000269188	0.233384	285.035
383.5000	-1.53152	-0.000276113	0.234982	285.139
383.0000	-1.47229	-0.00029722	0.236605	285.253
382.5000	-1.46968	-0.000314586	0.238389	285.371
382.0000	-1.36092	-0.000335131	0.240082	285.491
381.5000	-1.43509	-0.000333019	0.24171	285.608
381.0000	-1.33012	-0.000341183	0.243145	285.72
380.5000	-1.13623	-0.00035741	0.244526	285.836
380.0000	-1.10018	-0.000360481	0.245923	285.959
379.5000	-1.17961	-0.000366079	0.247418	286.087
379.0000	-1.0121	-0.000388254	0.24894	286.213
378.5000	-0.875987	-0.000397538	0.25004	286.324
378.0000	-0.662065	-0.000406994	0.251059	286.438
377.5000	-0.84763	-0.000425752	0.252259	286.546
377.0000	-0.801232	-0.000441296	0.253251	286.632
376.5000	-0.563434	-0.000461825	0.254265	286.721
376.0000	-0.588684	-0.000444045	0.255326	286.817
375.5000	-0.643541	-0.000454613	0.256373	286.891
375.0000	-0.51608	-0.000450225	0.257258	286.961
374.5000	-0.418463	-0.000454697	0.258141	287.031
374.0000	-0.340621	-0.000462121	0.258995	287.088
373.5000	-0.30308	-0.000472651	0.259822	287.146
373.0000	-0.19839	-0.000495441	0.260644	287.213
372.5000	-0.265038	-0.00051423	0.261503	287.276
372.0000	-0.404657	-0.000528597	0.262255	287.344
371.5000	-0.195514	-0.000540808	0.26311	287.417
371.0000	-0.198815	-0.000550201	0.263841	287.49
370.5000	-0.0905034	-0.000557633	0.264836	287.59
370.0000	-0.0741263	-0.000568546	0.265865	287.686
369.5000	-0.0963247	-0.000589447	0.267054	287.79
369.0000	0.0799178	-0.000582937	0.268242	287.911
368.5000	0.190768	-0.000588691	0.26944	288.045
368.0000	0.237353	-0.000603757	0.270696	288.181
367.5000	0.49796	-0.000622661	0.272102	288.331
367.0000	0.618261	-0.000625856	0.273485	288.487
366.5000	0.691691	-0.000652509	0.274725	288.645
366.0000	0.804202	-0.000668815	0.276017	288.812
365.5000	0.944879	-0.0006763	0.277341	288.977
365.0000	1.06026	-0.000687707	0.278736	289.129
364.5000	1.11281	-0.000679146	0.280359	289.295
364.0000	0.907684	-0.000696938	0.281881	289.467
363.5000	0.819261	-0.000712141	0.283277	289.627
363.0000	1.05518	-0.000719789	0.284614	289.792
362.5000	1.19492	-0.00072396	0.285871	289.943
362.0000	1.21636	-0.000723295	0.287203	290.106
361.5000	1.31621	-0.000727816	0.28873	290.277
361.0000	1.24982	-0.00072866	0.29007	290.439
360.5000	1.51376	-0.000723007	0.29149	290.611
360.0000	1.44715	-0.000742674	0.292952	290.774
359.5000	1.31628	-0.000750544	0.294476	290.938
359.0000	1.3275	-0.000752253	0.295864	291.099
358.5000	1.39822	-0.000762813	0.297329	291.259
358.0000	1.49583	-0.000778108	0.298856	291.412
357.5000	1.44997	-0.000776596	0.300207	291.576
357.0000	1.6029	-0.00077618	0.301845	291.764
356.5000	1.90911	-0.000780842	0.303015	291.912
356.0000	1.98552	-0.00080141	0.304204	292.068
355.5000	2.28153	-0.000800013	0.305668	292.224
355.0000	2.34099	-0.000799844	0.307132	292.393
354.5000	2.54333	-0.000806376	0.308642	292.557
354.0000	2.86138	-0.000813471	0.310033	292.731
353.5000	2.78369	-0.000839752	0.311487	292.893
353.0000	2.94802	-0.000851959	0.312777	293.055
352.5000	3.30579	-0.00086219	0.314279	293.235
352.0000	3.42153	-0.000865999	0.315757	293.406
351.5000	3.69224	-0.000871565	0.31726	293.582
351.0000	4.11352	-0.000901213	0.318766	293.755
350.5000	4.28943	-0.000932556	0.320189	293.922
350.0000	4.46733	-0.000953272	0.321664	294.103
349.5000	4.75564	-0.000951785	0.323022	294.291
349.0000	5.07386	-0.00096127	0.324672	294.482
348.5000	5.27316	-0.000978434	0.326259	294.666
348.0000	5.2539	-0.000996132	0.328066	294.857
347.5000	5.31484	-0.00102205	0.329789	295.042
347.0000	5.57515	-0.00103611	0.331374	295.222
346.5000	5.71999	-0.00104705	0.333106	295.409
346.0000	5.70725	-0.00107124	0.334856	295.59
345.5000	5.7758	-0.00108087	0.336728	295.785
345.0000	6.07852	-0.00107696	0.338711	295.991
344.5000	6.2293	-0.00110089	0.340524	296.176
344.0000	6.49653	-0.00114744	0.342416	296.363
343.5000	6.70796	-0.00116703	0.344165	296.546
343.0000	6.76307	-0.00117466	0.345956	296.731
342.5000	7.11171	-0.00117503	0.347692	296.915
342.0000	7.34728	-0.00119032	0.349702	297.124
341.5000	7.37506	-0.00121141	0.351609	297.31
341.0000	7.49027	-0.00123717	0.353154	297.462
340.5000	7.49596	-0.001263	0.354858	297.633
340.0000	7.52869	-0.00127796	0.356575	297.818
339.5000	8.01742	-0.00128001	0.358261	298.01
339.0000	8.4016	-0.0012994	0.360076	298.196
338.5000	8.84865	-0.00131163	0.361934	298.397
338.0000	9.03809	-0.0013324	0.363837	298.597
337.5000	9.3078	-0.00133616	0.365914	298.801
337.0000	9.50108	-0.00137063	0.367592	298.998
336.5000	9.68827	-0.00140008	0.369341	299.192
336.0000	9.87351	-0.00142074	0.371302	299.414
335.5000	10.1247	-0.00142758	0.373122	299.624
335.0000	10.4906	-0.00144694	0.374929	299.828
334.5000	10.8295	-0.00147716	0.376983	300.064
334.0000	11.0036	-0.00150284	0.378869	300.284
333.5000	11.4016	-0.0015174	0.381022	300.538
333.0000	11.9098	-0.00153159	0.383051	300.781
332.5000	12.1103	-0.00154738	0.385315	301.039
332.0000	12.4884	-0.00157555	0.387418	301.273
331.5000	13.0607	-0.00159521	0.389623	301.526
331.0000	13.3167	-0.00163464	0.392237	301.816
330.5000	13.4253	-0.00166187	0.3946	302.08
330.0000	13.7169	-0.00169568	0.396807	302.346
329.5000	14.342	-0.00174754	0.399303	302.621
329.0000	14.9166	-0.00178702	0.401764	302.895
328.5000	15.3799	-0.001817	0.404274	303.147
328.0000	15.9481	-0.00185629	0.406793	303.402
327.5000	16.3581	-0.0018839	0.409439	303.651
327.0000	16.8651	-0.0019036	0.412016	303.9
326.5000	17.2571	-0.00195597	0.414943	304.198
326.0000	17.9177	-0.00199305	0.417406	304.476
325.5000	18.312	-0.00201427	0.420007	304.763
325.0000	18.7815	-0.00205547	0.422729	305.042
324.5000	19.1764	-0.00209081	0.425669	305.342
324.0000	19.708	-0.0021447	0.42883	305.674
323.5000	20.3194	-0.00215862	0.431676	305.99
323.0000	20.5595	-0.00219716	0.434576	306.308
322.5000	20.8548	-0.00222136	0.437296	306.613
322.0000	21.3461	-0.00224594	0.440165	306.928
321.5000	21.5884	-0.00228353	0.44308	307.249
321.0000	21.8443	-0.00229884	0.446102	307.58
320.5000	22.2475	-0.00232209	0.448903	307.903
320.0000	22.5599	-0.00233159	0.451681	308.223
319.5000	22.8713	-0.00232983	0.454396	308.544
319.0000	23.2315	-0.00237603	0.457194	308.902
318.5000	23.5385	-0.00238204	0.460237	309.261
318.0000	23.8712	-0.00240144	0.463327	309.595
317.5000	23.9074	-0.00241785	0.466462	309.912
317.0000	24.3598	-0.0024297	0.469867	310.254
316.5000	24.6402	-0.00244761	0.472919	310.58
316.0000	25.3041	-0.00246655	0.476069	310.941
315.5000	25.5404	-0.00248149	0.479284	311.289
315.0000	26.0513	-0.00248835	0.482906	311.689
314.5000	26.4701	-0.00252057	0.486376	312.079
314.0000	27.2548	-0.00253968	0.490098	312.484
313.5000	27.6869	-0.00256629	0.493855	312.906
313.0000	28.2713	-0.0025635	0.497942	313.362
312.5000	28.8391	-0.00259083	0.50213	313.832
312.0000	29.3653	-0.00260468	0.50665	314.329
311.5000	29.6498	-0.00263004	0.511219	314.831
311.0000	30.1298	-0.00264929	0.515902	315.345
310.5000	30.3978	-0.00265691	0.520997	315.914
310.0000	30.9069	-0.00269534	0.525919	316.461
309.5000	31.517	-0.00271882	0.531001	317.04
309.0000	32.1183	-0.00274608	0.536694	317.684
308.5000	32.448	-0.00278318	0.542473	318.343
308.0000	32.7964	-0.00279297	0.548167	318.964
307.5000	33.3036	-0.00281656	0.554535	319.666
307.0000	33.5848	-0.0028396	0.560431	320.312
306.5000	33.8752	-0.0028677	0.566986	321.025
306.0000	34.2127	-0.00290292	0.573598	321.737
305.5000	34.6383	-0.00291995	0.580474	322.487
305.0000	34.8211	-0.00294644	0.587005	323.198
304.5000	35.1987	-0.00298773	0.594031	323.956
304.0000	35.4401	-0.00299685	0.601375	324.732
303.5000	35.2178	-0.00304029	0.607998	325.473
303.0000	35.1238	-0.00305457	0.615463	326.29
302.5000	35.3056	-0.0030801	0.623043	327.115
302.0000	35.4282	-0.00309882	0.630596	327.943
301.5000	35.2661	-0.00309716	0.637974	328.761
301.0000	35.117	-0.00308093	0.645134	329.557
300.5000	34.689	-0.0030865	0.65152	330.265
300.0000	34.3667	-0.00307561	0.659254	331.099
299.5000	33.7592	-0.00310506	0.666262	331.886
299.0000	33.2059	-0.0030996	0.673218	332.656
298.5000	32.6304	-0.00310295	0.680577	333.458
298.0000	32.0611	-0.00308817	0.687361	334.202
297.5000	31.5462	-0.00308651	0.69419	334.947
297.0000	31.0614	-0.00308775	0.700207	335.611
296.5000	30.2653	-0.00308002	0.70611	336.262
296.0000	29.4633	-0.00305181	0.711997	336.89
295.5000	28.6448	-0.00303185	0.718045	337.5
295.0000	28.5019	-0.0030249	0.723781	338.091
294.5000	27.9348	-0.00298557	0.729204	338.694
294.0000	26.9584	-0.00293741	0.734877	339.34
293.5000	26.0546	-0.00291441	0.739595	339.885
293.0000	25.3267	-0.00286674	0.744738	340.477
292.5000	24.5831	-0.0028634	0.750091	341.09
292.0000	23.9988	-0.00283998	0.755129	341.671
291.5000	23.4651	-0.00278639	0.759939	342.234
291.0000	22.6998	-0.00275832	0.764807	342.811
290.5000	22.1552	-0.00272279	0.769825	343.409
290.0000	21.2014	-0.00268812	0.774626	343.992
289.5000	20.4524	-0.002652	0.7792	344.55
289.0000	19.7329	-0.00259109	0.783669	345.093
288.5000	18.9421	-0.00253637	0.788737	345.708
288.0000	18.1564	-0.00248545	0.793869	346.328
287.5000	17.511	-0.00246234	0.798984	346.984
287.0000	16.5469	-0.00241694	0.804248	347.669
286.5000	15.4485	-0.0023427	0.809408	348.324
286.0000	14.619	-0.00233064	0.814597	348.946
285.5000	14.3327	-0.00230872	0.819871	349.565
285.0000	13.6968	-0.00227156	0.825572	350.236
284.5000	13.355	-0.00222677	0.830922	350.867
284.0000	12.5436	-0.0021864	0.83686	351.564
283.5000	11.6913	-0.00212563	0.842907	352.294
283.0000	11.2982	-0.00208438	0.848941	353.002
282.5000	10.275	-0.0020211	0.85536	353.759
282.0000	9.68477	-0.00198391	0.862077	354.555
281.5000	9.2127	-0.00194712	0.868728	355.334
281.0000	8.76713	-0.00188586	0.875666	356.158
280.5000	7.78793	-0.00184105	0.883297	357.059
280.0000	7.12409	-0.00178378	0.891388	358.004
279.5000	6.49514	-0.00173267	0.899775	358.992
279.0000	5.84421	-0.00168217	0.907982	359.97
278.5000	5.14856	-0.00164799	0.916953	361.045
278.0000	4.80936	-0.00160338	0.927048	362.232
277.5000	4.50848	-0.00157319	0.936443	363.356
277.0000	3.33649	-0.00151938	0.946845	364.585
276.5000	2.82976	-0.00148028	0.957624	365.857
276.0000	1.7778	-0.00143909	0.967685	367.048
275.5000	1.75169	-0.00137286	0.979226	368.42
275.0000	1.15818	-0.00136711	0.991323	369.853
274.5000	0.174631	-0.00132993	1.00382	371.347
274.0000	-0.244983	-0.001309	1.01758	372.994
273.5000	-0.682906	-0.00130172	1.03056	374.55
273.0000	-0.996489	-0.00129807	1.04452	376.24
272.5000	-1.26155	-0.00128011	1.05896	378.002
272.0000	-1.43981	-0.00126529	1.07407	379.871
271.5000	-1.39395	-0.00128713	1.09065	381.921
271.0000	-1.48191	-0.00129843	1.10693	383.944
270.5000	-1.35355	-0.00134345	1.12409	386.058
270.0000	-1.93474	-0.00137187	1.14162	388.253
269.5000	-2.25648	-0.00137414	1.15984	390.562
269.0000	-2.3599	-0.00136748	1.17773	392.843
268.5000	-2.12019	-0.00137997	1.19719	395.338
268.0000	-2.52501	-0.00138642	1.21739	397.942
267.5000	-2.16962	-0.00143165	1.23807	400.634
267.0000	-1.96077	-0.00145423	1.26029	403.546
266.5000	-1.05969	-0.00141335	1.28305	406.557
266.0000	-0.241257	-0.00143083	1.30406	409.358
265.5000	0.328078	-0.00146863	1.32638	412.356
265.0000	1.68018	-0.00144989	1.35004	415.575
264.5000	2.51083	-0.00145222	1.3729	418.7
264.0000	4.03916	-0.00144803	1.39601	421.873
263.5000	7.20074	-0.00147436	1.4205	425.269
263.0000	8.95278	-0.00150736	1.44276	428.408
262.5000	11.9074	-0.00152385	1.46772	431.958
262.0000	15.3159	-0.0014678	1.49202	435.432
261.5000	18.5516	-0.00139398	1.51662	438.965
261.0000	22.7855	-0.00144909	1.54057	442.406
260.5000	26.4773	-0.00146938	1.56643	446.154
260.0000	31.9726	-0.00151313	1.59298	450.027
259.5000	37.574	-0.00156493	1.61995	454.017
259.0000	42.7282	-0.00162953	1.6481	458.163
258.5000	48.6698	-0.00172397	1.67699	462.475
258.0000	54.8896	-0.00180721	1.70698	466.953
257.5000	60.9643	-0.00188832	1.73661	471.378
257.0000	67.9998	-0.00188427	1.76904	476.251
256.5000	74.9386	-0.00189264	1.80099	481.073
256.0000	80.8431	-0.00192501	1.836	486.381
255.5000	86.7194	-0.00201763	1.87217	491.922
255.0000	92.1357	-0.00201799	1.90974	497.694
254.5000	97.4199	-0.0020723	1.94654	503.385
254.0000	103.502	-0.00222901	1.98447	509.304
253.5000	111.225	-0.00226231	2.02772	516.11
253.0000	116.455	-0.00243197	2.06799	522.498
252.5000	122.708	-0.00264466	2.12912	532.32
252.0000	126.938	-0.00277975	2.1812	540.803
251.5000	129.419	-0.0029273	2.22778	548.468
251.0000	133.538	-0.00295929	2.27548	556.428
250.5000	135.965	-0.00293139	2.32449	564.696
250.0000	138.603	-0.00304505	2.37234	572.846

##### Extended Information
[Comments]
Sample name	20% S-JS after 72 hrs
Comment
User
Division
Company	Labo systeme complexes hors equilibre

[Detailed Information]
Creation date	10/13/2025 4:02 PM

Data array type	Linear data array * 4
Horizontal axis	Wavelength [nm]
Vertical axis(1)	CD [mdeg]
Vertical axis(2)	LD [dOD]
Vertical axis(3)	Abs
Vertical axis(4)	HT [V]
Start	700 nm
End	250 nm
Data interval	0.5 nm
Data points	901     

[Measurement Information]
Instrument name	CD Jasco
Model name	J-1500
Serial No.	A005261638

Detector	PM-539
Detector S/N	A0052PM539
  Lock-in amp.	X mode
  HT volt	Auto

Detector	EXPML-535
Detector S/N	A0001
  Lock-in amp.	X mode
  HT volt	Auto

Accessory	PTC-517
Accessory S/N	A001361646
  Temperature	19.96 C
  Control sonsor	Holder
  Monitor sensor	Holder
  Start Mode	Keep target temperature +/-0.10 deg C while 5 seconds

Measurement date	10/13/2025 4:02 PM

Overload detect	1
Photometric mode	CD, LD, Abs, HT
Measure range	700 - 250 nm
Data pitch	0.5 nm
CD scale	200 mdeg/1.0 dOD
FL scale	200 mdeg/1.0 dOD
D.I.T.	1 sec
Bandwidth	1.00 nm
Start mode	Immediately
Scanning speed	500 nm/min
Baseline correction	Baseline
Shutter control	Auto


