TITLE	30% S-JS after DT 72 hrs
DATA TYPE	
ORIGIN	JASCO
OWNER	
DATE	25/07/14
TIME	15:46:45
SPECTROMETER/DATA SYSTEM	
LOCALE	1033
RESOLUTION	
DELTAX	-0.5
XUNITS	NANOMETERS
YUNITS	CD [mdeg]
Y2UNITS	LD [dOD]
Y3UNITS	ABSORBANCE
Y4UNITS	HT [V]
FIRSTX	  700.0000
LASTX	  200.0000
NPOINTS	    1001
FIRSTY	     0.91247
MAXY	    22.76482
MINY	    -4.06414
XYDATA
700.0000	0.912467	-0.0023918	0.30143	349.235
699.5000	1.01388	-0.00238872	0.301422	348.638
699.0000	1.11904	-0.00236503	0.302939	347.966
698.5000	1.23243	-0.00241292	0.305131	347.247
698.0000	1.36297	-0.00240877	0.30721	346.544
697.5000	1.4868	-0.00237251	0.308908	345.926
697.0000	1.59795	-0.00237178	0.312802	345.353
696.5000	1.73294	-0.00233788	0.318038	344.877
696.0000	1.85899	-0.00233927	0.323443	344.448
695.5000	1.98484	-0.00229417	0.328545	344.12
695.0000	2.1113	-0.00231178	0.332605	343.866
694.5000	2.19517	-0.00228876	0.335657	343.661
694.0000	2.25905	-0.00224708	0.338668	343.486
693.5000	2.29633	-0.00225817	0.340246	343.343
693.0000	2.30799	-0.00226528	0.342791	343.234
692.5000	2.33677	-0.00226238	0.346195	343.194
692.0000	2.33666	-0.0022595	0.349241	343.252
691.5000	2.32974	-0.00227324	0.352709	343.417
691.0000	2.28988	-0.00228073	0.356219	343.731
690.5000	2.24857	-0.00225926	0.358509	344.138
690.0000	2.18094	-0.00225067	0.360334	344.583
689.5000	2.10049	-0.00228609	0.360798	345.036
689.0000	2.01484	-0.00229859	0.359737	345.467
688.5000	1.94029	-0.00230385	0.356667	345.879
688.0000	1.8383	-0.00232219	0.354886	346.274
687.5000	1.74673	-0.00235507	0.351832	346.639
687.0000	1.65443	-0.00238439	0.348978	346.953
686.5000	1.59223	-0.0023676	0.346838	347.263
686.0000	1.50601	-0.00240903	0.346199	347.562
685.5000	1.4675	-0.00241294	0.34693	347.903
685.0000	1.43672	-0.00241979	0.347116	348.256
684.5000	1.44909	-0.0024072	0.347232	348.609
684.0000	1.44795	-0.00239959	0.347446	348.936
683.5000	1.44011	-0.00240866	0.346291	349.213
683.0000	1.47315	-0.00238073	0.344416	349.423
682.5000	1.50725	-0.00237823	0.342414	349.541
682.0000	1.53323	-0.00240315	0.34056	349.595
681.5000	1.55771	-0.00237907	0.339207	349.602
681.0000	1.57853	-0.0023907	0.33879	349.583
680.5000	1.6203	-0.00240411	0.339095	349.557
680.0000	1.66743	-0.00238516	0.33953	349.534
679.5000	1.72549	-0.00237554	0.339294	349.532
679.0000	1.77288	-0.00235512	0.342092	349.545
678.5000	1.81043	-0.00236185	0.343603	349.577
678.0000	1.85181	-0.00236658	0.345053	349.613
677.5000	1.90889	-0.00234653	0.346301	349.667
677.0000	1.9235	-0.00235824	0.34763	349.718
676.5000	1.9332	-0.00236478	0.349262	349.784
676.0000	1.89824	-0.00237959	0.348776	349.867
675.5000	1.89917	-0.00237882	0.349754	349.969
675.0000	1.87216	-0.00236062	0.351105	350.082
674.5000	1.82146	-0.00234527	0.351776	350.181
674.0000	1.81379	-0.00234144	0.352151	350.306
673.5000	1.82071	-0.00236199	0.353284	350.427
673.0000	1.85514	-0.00236279	0.354421	350.574
672.5000	1.90263	-0.00232611	0.354554	350.728
672.0000	1.91768	-0.00234041	0.355048	350.876
671.5000	1.95466	-0.00233733	0.35557	351.019
671.0000	2.01168	-0.00236483	0.356823	351.169
670.5000	2.07203	-0.00235141	0.357792	351.306
670.0000	2.15812	-0.00235259	0.35779	351.464
669.5000	2.20928	-0.0023769	0.357789	351.63
669.0000	2.28047	-0.00237599	0.357252	351.791
668.5000	2.34245	-0.00238038	0.356709	351.957
668.0000	2.40755	-0.00234187	0.356699	352.126
667.5000	2.48835	-0.00235259	0.357221	352.298
667.0000	2.55589	-0.00232977	0.358484	352.466
666.5000	2.68276	-0.00234411	0.357517	352.62
666.0000	2.78283	-0.00233139	0.356993	352.778
665.5000	2.86739	-0.00236511	0.356209	352.894
665.0000	2.95196	-0.00231346	0.356042	353
664.5000	3.0276	-0.00232012	0.356627	353.081
664.0000	3.07965	-0.00232205	0.356526	353.147
663.5000	3.13087	-0.00233646	0.356482	353.204
663.0000	3.14146	-0.00229134	0.356455	353.239
662.5000	3.12998	-0.00232131	0.356768	353.25
662.0000	3.11806	-0.00233012	0.357857	353.239
661.5000	3.10348	-0.00230925	0.359241	353.198
661.0000	3.08968	-0.00233432	0.359656	353.138
660.5000	3.10077	-0.00234304	0.360489	353.046
660.0000	3.12799	-0.00235011	0.35972	352.918
659.5000	3.14985	-0.00235608	0.359499	352.765
659.0000	3.17034	-0.00237697	0.35855	352.566
658.5000	3.17749	-0.00239499	0.359964	352.337
658.0000	3.13851	-0.00239474	0.360463	352.095
657.5000	3.13856	-0.00236766	0.360576	351.846
657.0000	3.12917	-0.00239408	0.360856	351.65
656.5000	3.11812	-0.00240019	0.361444	351.451
656.0000	3.11503	-0.00240297	0.363934	351.277
655.5000	3.12375	-0.00240838	0.36668	351.145
655.0000	3.13511	-0.00241611	0.369006	351.034
654.5000	3.16306	-0.00240577	0.370561	350.978
654.0000	3.1834	-0.00240834	0.372022	350.952
653.5000	3.18561	-0.00240009	0.373225	350.975
653.0000	3.18254	-0.00240816	0.374627	351.029
652.5000	3.19471	-0.00232559	0.375847	351.124
652.0000	3.16081	-0.00233869	0.378113	351.248
651.5000	3.13613	-0.00233441	0.38118	351.414
651.0000	3.1149	-0.00235114	0.382736	351.63
650.5000	3.08404	-0.00235331	0.384484	351.885
650.0000	3.0733	-0.0023352	0.385255	352.153
649.5000	3.07201	-0.00236685	0.387228	352.422
649.0000	3.07472	-0.00234665	0.389091	352.677
648.5000	3.06942	-0.00233612	0.389395	352.926
648.0000	3.05597	-0.00236326	0.389392	353.158
647.5000	3.04834	-0.00233959	0.388644	353.343
647.0000	3.04743	-0.00230927	0.387162	353.505
646.5000	3.06773	-0.00229799	0.386898	353.64
646.0000	3.08605	-0.00228593	0.386409	353.724
645.5000	3.14133	-0.00229304	0.38612	353.767
645.0000	3.21612	-0.00227424	0.386387	353.789
644.5000	3.27956	-0.00230616	0.385819	353.773
644.0000	3.34116	-0.00233951	0.386102	353.771
643.5000	3.42315	-0.00237618	0.386246	353.737
643.0000	3.48824	-0.00238364	0.386854	353.69
642.5000	3.54847	-0.00233387	0.387368	353.617
642.0000	3.61004	-0.0023664	0.388348	353.531
641.5000	3.6598	-0.00238165	0.390163	353.463
641.0000	3.71006	-0.00235483	0.390257	353.395
640.5000	3.73803	-0.00238179	0.391334	353.338
640.0000	3.76127	-0.00237687	0.393369	353.272
639.5000	3.78844	-0.00237727	0.394427	353.199
639.0000	3.80939	-0.00241198	0.396706	353.156
638.5000	3.83016	-0.00245336	0.398853	353.115
638.0000	3.86046	-0.00245274	0.401067	353.085
637.5000	3.88221	-0.00247591	0.402862	353.08
637.0000	3.84656	-0.00249627	0.403653	353.086
636.5000	3.80699	-0.00247805	0.404803	353.104
636.0000	3.76764	-0.00246905	0.40692	353.112
635.5000	3.72663	-0.00245701	0.408601	353.139
635.0000	3.65711	-0.0024452	0.40898	353.167
634.5000	3.58945	-0.00244314	0.410719	353.216
634.0000	3.55709	-0.00248797	0.411847	353.255
633.5000	3.52308	-0.00250307	0.41347	353.288
633.0000	3.49769	-0.0024785	0.415188	353.32
632.5000	3.48405	-0.0025285	0.417594	353.348
632.0000	3.45813	-0.00253146	0.417789	353.382
631.5000	3.42223	-0.00254609	0.418338	353.412
631.0000	3.38039	-0.00256315	0.418825	353.445
630.5000	3.3285	-0.00256361	0.420426	353.465
630.0000	3.25517	-0.00253719	0.422537	353.47
629.5000	3.17926	-0.00255155	0.423906	353.498
629.0000	3.12873	-0.00252064	0.425993	353.524
628.5000	3.10926	-0.00254378	0.428471	353.559
628.0000	3.11487	-0.00255464	0.431042	353.606
627.5000	3.12879	-0.00256525	0.432705	353.665
627.0000	3.14586	-0.00257337	0.434953	353.733
626.5000	3.18328	-0.00256204	0.438342	353.828
626.0000	3.23396	-0.00255512	0.441207	353.944
625.5000	3.26127	-0.00252913	0.444241	354.098
625.0000	3.302	-0.00251895	0.446024	354.27
624.5000	3.33269	-0.00251945	0.448239	354.455
624.0000	3.35557	-0.00251348	0.452157	354.66
623.5000	3.42185	-0.00251213	0.455598	354.873
623.0000	3.51669	-0.00250624	0.459093	355.108
622.5000	3.62358	-0.00252067	0.461324	355.357
622.0000	3.74964	-0.00252136	0.463316	355.619
621.5000	3.8786	-0.00254169	0.465897	355.908
621.0000	4.02433	-0.00256172	0.469017	356.201
620.5000	4.143	-0.00257838	0.471015	356.487
620.0000	4.24092	-0.00257413	0.472119	356.8
619.5000	4.31751	-0.00257393	0.474025	357.187
619.0000	4.38785	-0.00259614	0.476652	357.565
618.5000	4.46011	-0.00262408	0.478137	357.984
618.0000	4.53963	-0.00263965	0.479528	358.377
617.5000	4.63118	-0.0026984	0.48087	358.757
617.0000	4.71687	-0.00271166	0.483232	359.147
616.5000	4.77015	-0.00268657	0.484818	359.514
616.0000	4.83932	-0.00272053	0.487092	359.874
615.5000	4.90841	-0.00275057	0.488102	360.224
615.0000	4.96016	-0.00275207	0.489121	360.579
614.5000	4.97833	-0.00274947	0.491116	360.914
614.0000	4.98546	-0.00275654	0.492551	361.24
613.5000	5.01165	-0.0027536	0.494105	361.585
613.0000	5.01414	-0.0027248	0.496252	361.943
612.5000	4.99872	-0.00272636	0.498293	362.292
612.0000	5.0192	-0.00273243	0.50166	362.629
611.5000	5.05498	-0.00273276	0.503944	362.949
611.0000	5.10015	-0.00270252	0.506002	363.29
610.5000	5.17471	-0.00268685	0.508368	363.612
610.0000	5.20089	-0.00273104	0.510819	363.921
609.5000	5.2107	-0.00270222	0.51379	364.237
609.0000	5.20411	-0.00270841	0.517006	364.525
608.5000	5.24184	-0.002757	0.519852	364.83
608.0000	5.30045	-0.00275355	0.522104	365.126
607.5000	5.32392	-0.00272315	0.525318	365.427
607.0000	5.38299	-0.00272262	0.529096	365.767
606.5000	5.42999	-0.00269482	0.533765	366.109
606.0000	5.48956	-0.00269094	0.5367	366.458
605.5000	5.53847	-0.00268943	0.539891	366.814
605.0000	5.54417	-0.00270223	0.543578	367.164
604.5000	5.59342	-0.00269413	0.54645	367.51
604.0000	5.64507	-0.00271623	0.550368	367.841
603.5000	5.68539	-0.00274634	0.554981	368.186
603.0000	5.73335	-0.00274141	0.558502	368.523
602.5000	5.76284	-0.00275321	0.563292	368.876
602.0000	5.766	-0.00272685	0.567516	369.231
601.5000	5.83184	-0.0027168	0.572575	369.602
601.0000	5.89826	-0.00271701	0.577554	369.987
600.5000	5.94821	-0.0027226	0.582673	370.392
600.0000	5.9539	-0.00271412	0.588292	370.785
599.5000	5.97719	-0.00276629	0.594186	371.188
599.0000	6.00876	-0.00278664	0.599069	371.588
598.5000	6.00316	-0.00281649	0.604006	371.99
598.0000	6.01326	-0.00282341	0.609784	372.393
597.5000	6.03527	-0.00281317	0.616617	372.812
597.0000	6.07637	-0.00284209	0.623035	373.253
596.5000	6.15701	-0.00287397	0.629671	373.676
596.0000	6.2351	-0.00287345	0.636027	374.126
595.5000	6.30528	-0.002864	0.642383	374.615
595.0000	6.37566	-0.00285662	0.649696	375.078
594.5000	6.44784	-0.00287698	0.656376	375.608
594.0000	6.56416	-0.00290131	0.664973	376.193
593.5000	6.69746	-0.00290454	0.672407	376.756
593.0000	6.8202	-0.00290524	0.679123	377.354
592.5000	6.97304	-0.00290638	0.686592	378.011
592.0000	7.13594	-0.00287043	0.694981	378.696
591.5000	7.333	-0.00283796	0.701656	379.345
591.0000	7.53494	-0.0028101	0.708274	380.053
590.5000	7.75313	-0.00279538	0.717048	380.79
590.0000	7.98758	-0.00276524	0.725565	381.598
589.5000	8.241	-0.00276696	0.734174	382.406
589.0000	8.52667	-0.00276007	0.743046	383.247
588.5000	8.80148	-0.00270857	0.752517	384.164
588.0000	9.04068	-0.00268573	0.761698	385.138
587.5000	9.31468	-0.00267358	0.771522	386.139
587.0000	9.59533	-0.00264093	0.781418	387.224
586.5000	9.86835	-0.00263971	0.790991	388.243
586.0000	10.1437	-0.00264544	0.80095	389.3
585.5000	10.4133	-0.00260734	0.810055	390.354
585.0000	10.6663	-0.00258383	0.820422	391.459
584.5000	10.9554	-0.00256166	0.830638	392.511
584.0000	11.188	-0.00255639	0.840657	393.653
583.5000	11.425	-0.0025504	0.850902	394.815
583.0000	11.6394	-0.00254417	0.862418	396.069
582.5000	11.8693	-0.00248483	0.874972	397.335
582.0000	12.1398	-0.00248782	0.886357	398.571
581.5000	12.4386	-0.0024505	0.898125	399.858
581.0000	12.695	-0.00245602	0.908123	401.125
580.5000	12.9394	-0.00245958	0.918266	402.366
580.0000	13.1882	-0.00246368	0.929086	403.572
579.5000	13.421	-0.00246426	0.94026	404.768
579.0000	13.6249	-0.00246307	0.950506	405.925
578.5000	13.8208	-0.00242699	0.960432	407.042
578.0000	14.0321	-0.00238486	0.971238	408.167
577.5000	14.1917	-0.00231535	0.982367	409.307
577.0000	14.3472	-0.00228058	0.992405	410.34
576.5000	14.4765	-0.00226347	1.00118	411.43
576.0000	14.567	-0.00224409	1.01104	412.421
575.5000	14.7215	-0.00229996	1.02028	413.394
575.0000	14.8523	-0.00226199	1.02739	414.243
574.5000	14.9653	-0.00223002	1.03375	415.094
574.0000	15.0078	-0.00225382	1.03957	415.84
573.5000	14.9844	-0.00222648	1.04622	416.546
573.0000	14.9252	-0.00215631	1.05371	417.232
572.5000	14.8605	-0.00217635	1.05838	417.803
572.0000	14.7769	-0.00215365	1.06461	418.38
571.5000	14.6716	-0.00215909	1.06965	418.864
571.0000	14.5993	-0.00216911	1.07482	419.28
570.5000	14.5061	-0.00213546	1.07934	419.673
570.0000	14.3746	-0.00214158	1.08371	420.004
569.5000	14.25	-0.00222768	1.08616	420.262
569.0000	14.1733	-0.00222581	1.08825	420.444
568.5000	14.0869	-0.00222396	1.08961	420.553
568.0000	14.0238	-0.00216669	1.09069	420.59
567.5000	13.9464	-0.00216465	1.09126	420.56
567.0000	13.8561	-0.00214934	1.09374	420.532
566.5000	13.7681	-0.00213351	1.09528	420.408
566.0000	13.7144	-0.00215875	1.09613	420.244
565.5000	13.7114	-0.00212915	1.0956	420.058
565.0000	13.6911	-0.00214215	1.09482	419.822
564.5000	13.697	-0.00212426	1.0951	419.579
564.0000	13.6856	-0.0021048	1.09445	419.311
563.5000	13.6738	-0.00206401	1.09333	419.013
563.0000	13.677	-0.0020585	1.09285	418.732
562.5000	13.6661	-0.00204051	1.09233	418.422
562.0000	13.6737	-0.0020512	1.09111	418.096
561.5000	13.7659	-0.00202378	1.08959	417.732
561.0000	13.8527	-0.00204271	1.08839	417.37
560.5000	13.9498	-0.00202762	1.08697	417.035
560.0000	14.0004	-0.00201456	1.08731	416.73
559.5000	14.0786	-0.00201536	1.08771	416.436
559.0000	14.1836	-0.00196757	1.08785	416.16
558.5000	14.3107	-0.00201492	1.08648	415.905
558.0000	14.4683	-0.00203176	1.08564	415.705
557.5000	14.6562	-0.00201857	1.08525	415.529
557.0000	14.8033	-0.00201786	1.08591	415.372
556.5000	14.9915	-0.00204506	1.08673	415.255
556.0000	15.1924	-0.00205945	1.08648	415.152
555.5000	15.472	-0.00204806	1.08788	415.117
555.0000	15.7899	-0.00210079	1.089	415.132
554.5000	16.126	-0.00210311	1.08988	415.192
554.0000	16.4748	-0.00208306	1.09145	415.312
553.5000	16.8181	-0.00201887	1.09312	415.423
553.0000	17.1025	-0.00204424	1.09576	415.611
552.5000	17.3272	-0.00202506	1.0999	415.846
552.0000	17.5567	-0.00202901	1.10342	416.115
551.5000	17.8505	-0.00201465	1.10717	416.422
551.0000	18.1026	-0.00204342	1.11045	416.807
550.5000	18.32	-0.00204972	1.11505	417.211
550.0000	18.5558	-0.00200307	1.12098	417.719
549.5000	18.7665	-0.00197255	1.12698	418.222
549.0000	18.9296	-0.00197332	1.13347	418.806
548.5000	19.1495	-0.00198748	1.13965	419.467
548.0000	19.4009	-0.0019385	1.14741	420.198
547.5000	19.6094	-0.001933	1.15497	420.937
547.0000	19.7702	-0.00195035	1.16367	421.747
546.5000	19.8743	-0.00195119	1.17155	422.557
546.0000	20.0197	-0.00195167	1.1806	423.438
545.5000	20.1364	-0.00190522	1.18899	424.335
545.0000	20.3122	-0.00192318	1.19755	425.249
544.5000	20.5007	-0.0019202	1.20638	426.213
544.0000	20.779	-0.00190739	1.21514	427.214
543.5000	21.0328	-0.0019047	1.22481	428.218
543.0000	21.2222	-0.00191066	1.23299	429.229
542.5000	21.4424	-0.00188943	1.24142	430.266
542.0000	21.6774	-0.00190901	1.25113	431.315
541.5000	21.844	-0.00193192	1.25881	432.365
541.0000	22.0371	-0.00191381	1.26791	433.4
540.5000	22.23	-0.00195716	1.27651	434.451
540.0000	22.3723	-0.0019459	1.28623	435.462
539.5000	22.4492	-0.00195973	1.29499	436.458
539.0000	22.5261	-0.0019527	1.30416	437.486
538.5000	22.6114	-0.00189231	1.31325	438.472
538.0000	22.6788	-0.00184003	1.32063	439.347
537.5000	22.7065	-0.00188677	1.32842	440.22
537.0000	22.7648	-0.00189146	1.33596	441.068
536.5000	22.7435	-0.00190031	1.34277	441.835
536.0000	22.7052	-0.00188116	1.3506	442.584
535.5000	22.5957	-0.00187474	1.35693	443.277
535.0000	22.4925	-0.00185555	1.36223	443.93
534.5000	22.43	-0.00185312	1.36785	444.468
534.0000	22.3234	-0.00181249	1.37323	444.989
533.5000	22.2108	-0.0017991	1.37936	445.47
533.0000	22.106	-0.00178139	1.38389	445.857
532.5000	21.9845	-0.00177235	1.38782	446.228
532.0000	21.8384	-0.00169165	1.39106	446.538
531.5000	21.6913	-0.00169691	1.39367	446.814
531.0000	21.5693	-0.00171558	1.39648	446.997
530.5000	21.4592	-0.0017245	1.39819	447.142
530.0000	21.3689	-0.00177785	1.40032	447.242
529.5000	21.313	-0.00171669	1.4016	447.328
529.0000	21.2343	-0.00170934	1.40251	447.332
528.5000	21.1391	-0.0016503	1.40335	447.303
528.0000	21.0228	-0.0016718	1.40479	447.259
527.5000	20.907	-0.00166273	1.40485	447.177
527.0000	20.8385	-0.00167592	1.40486	447.042
526.5000	20.7068	-0.0016785	1.40656	446.89
526.0000	20.5415	-0.00167896	1.40698	446.702
525.5000	20.4133	-0.00175926	1.40718	446.47
525.0000	20.2883	-0.00175216	1.40611	446.248
524.5000	20.1734	-0.00175278	1.40576	446.04
524.0000	20.0978	-0.00180501	1.4061	445.819
523.5000	20.0441	-0.00179689	1.40694	445.591
523.0000	20.0161	-0.00176434	1.40647	445.341
522.5000	20.0215	-0.00177134	1.40618	445.119
522.0000	20.0284	-0.00170947	1.40673	444.911
521.5000	19.9747	-0.0016869	1.40737	444.721
521.0000	19.9044	-0.00170796	1.40879	444.532
520.5000	19.8919	-0.00165837	1.40981	444.361
520.0000	19.9056	-0.00162313	1.41053	444.181
519.5000	19.9902	-0.00157713	1.41117	443.988
519.0000	20.0861	-0.0015726	1.41236	443.824
518.5000	20.1565	-0.00159151	1.41232	443.722
518.0000	20.3005	-0.00157414	1.41332	443.66
517.5000	20.5193	-0.00155924	1.41367	443.636
517.0000	20.7055	-0.0014508	1.41431	443.607
516.5000	20.8624	-0.00140536	1.41534	443.56
516.0000	20.9996	-0.0013965	1.41635	443.55
515.5000	21.0619	-0.00142712	1.41763	443.572
515.0000	21.1119	-0.00145861	1.41763	443.599
514.5000	21.1447	-0.00146765	1.41975	443.643
514.0000	21.1252	-0.00153244	1.42201	443.672
513.5000	21.0885	-0.00160092	1.42279	443.686
513.0000	21.0913	-0.00164645	1.42349	443.694
512.5000	21.0584	-0.00167492	1.4231	443.734
512.0000	20.9865	-0.00176685	1.42362	443.754
511.5000	20.8522	-0.00181873	1.42414	443.786
511.0000	20.6613	-0.00185597	1.42459	443.761
510.5000	20.4781	-0.00184508	1.42481	443.678
510.0000	20.311	-0.00184181	1.42451	443.543
509.5000	20.1001	-0.00185811	1.42424	443.353
509.0000	19.781	-0.00188871	1.42504	443.146
508.5000	19.5025	-0.00194831	1.42546	442.928
508.0000	19.2087	-0.00194295	1.42563	442.674
507.5000	18.9535	-0.00187798	1.42498	442.364
507.0000	18.7281	-0.00187866	1.4238	442.029
506.5000	18.4812	-0.00182008	1.42185	441.668
506.0000	18.245	-0.00182225	1.41875	441.287
505.5000	18.0205	-0.0018088	1.41649	440.833
505.0000	17.7698	-0.00181806	1.4139	440.34
504.5000	17.4978	-0.00181453	1.41144	439.706
504.0000	17.2285	-0.00184827	1.40805	439.039
503.5000	16.9044	-0.00180669	1.40392	438.303
503.0000	16.591	-0.00182146	1.39826	437.457
502.5000	16.3105	-0.00187351	1.39349	436.638
502.0000	16.026	-0.00185661	1.38915	435.745
501.5000	15.685	-0.00186868	1.38371	434.794
501.0000	15.3762	-0.00188311	1.37722	433.707
500.5000	15.0924	-0.00187807	1.36886	432.452
500.0000	14.7875	-0.0018741	1.35976	431.024
499.5000	14.4997	-0.00190231	1.35048	429.389
499.0000	14.1539	-0.00194816	1.34065	427.505
498.5000	13.817	-0.00196709	1.3324	425.562
498.0000	13.4682	-0.00198108	1.32528	423.639
497.5000	13.1145	-0.00195337	1.31867	421.765
497.0000	12.7576	-0.0019665	1.31085	420.2
496.5000	12.4372	-0.00201093	1.30179	418.702
496.0000	12.143	-0.00199624	1.29322	417.319
495.5000	11.8779	-0.00199219	1.28316	415.845
495.0000	11.6605	-0.00197793	1.27468	414.462
494.5000	11.4478	-0.00199358	1.26432	413.105
494.0000	11.2178	-0.0019594	1.255	411.83
493.5000	10.9895	-0.00197009	1.24616	410.495
493.0000	10.7784	-0.00196695	1.23618	409.28
492.5000	10.5825	-0.00199001	1.22652	408.03
492.0000	10.4364	-0.00202215	1.21672	406.718
491.5000	10.2947	-0.00204424	1.20725	405.553
491.0000	10.1869	-0.00206736	1.19869	404.477
490.5000	10.081	-0.00204823	1.18867	403.436
490.0000	9.94892	-0.00206345	1.17683	402.361
489.5000	9.87956	-0.00207945	1.16543	401.142
489.0000	9.79021	-0.00210854	1.15402	399.59
488.5000	9.7168	-0.00207746	1.1443	397.949
488.0000	9.60924	-0.00209909	1.13426	396.211
487.5000	9.50047	-0.00212917	1.1239	394.403
487.0000	9.42574	-0.00214084	1.11601	392.725
486.5000	9.33324	-0.00215635	1.10934	391.123
486.0000	9.26303	-0.00216983	1.10331	389.814
485.5000	9.19441	-0.00217223	1.09679	388.657
485.0000	9.12388	-0.00219715	1.08989	387.536
484.5000	9.07602	-0.00218533	1.08198	386.463
484.0000	8.98136	-0.00218271	1.07409	385.438
483.5000	8.86665	-0.0021609	1.06678	384.532
483.0000	8.74277	-0.00215361	1.05821	383.666
482.5000	8.60213	-0.0021279	1.05045	382.92
482.0000	8.49686	-0.00214623	1.04314	382.235
481.5000	8.41763	-0.00216383	1.03599	381.546
481.0000	8.28238	-0.00214637	1.02804	380.882
480.5000	8.15345	-0.00215357	1.01984	380.141
480.0000	8.01519	-0.00217274	1.00997	379.038
479.5000	7.91997	-0.00217706	1.00101	377.649
479.0000	7.80609	-0.00216881	0.996184	376.355
478.5000	7.67775	-0.00213673	0.991037	375.434
478.0000	7.5516	-0.00211104	0.984745	374.568
477.5000	7.42047	-0.00211308	0.976075	373.601
477.0000	7.25328	-0.0021646	0.966286	372.35
476.5000	7.07691	-0.00214708	0.955607	370.673
476.0000	6.88279	-0.0021589	0.946253	368.887
475.5000	6.72304	-0.00215572	0.937985	366.925
475.0000	6.58692	-0.00218104	0.928082	364.789
474.5000	6.46034	-0.00218368	0.918994	362.539
474.0000	6.35412	-0.00219366	0.911226	360.163
473.5000	6.24255	-0.00217793	0.905505	357.773
473.0000	6.11953	-0.00216758	0.903528	355.782
472.5000	6.0623	-0.00214936	0.900103	354.224
472.0000	6.01956	-0.00213267	0.89673	353.223
471.5000	5.96247	-0.0021121	0.891456	352.682
471.0000	5.89605	-0.0021097	0.884761	352.362
470.5000	5.82091	-0.00210199	0.874379	351.771
470.0000	5.73856	-0.00212756	0.864254	350.825
469.5000	5.66195	-0.00211708	0.855508	349.602
469.0000	5.58341	-0.00211725	0.849001	348.263
468.5000	5.55691	-0.00208516	0.844479	347.105
468.0000	5.54016	-0.00205143	0.840507	346.28
467.5000	5.51712	-0.00203219	0.835909	345.797
467.0000	5.4759	-0.00202144	0.831699	345.585
466.5000	5.41027	-0.00202167	0.827675	345.633
466.0000	5.36469	-0.00198111	0.821291	345.925
465.5000	5.29493	-0.0019917	0.813254	346.328
465.0000	5.2435	-0.00198336	0.801539	346.501
464.5000	5.20066	-0.0019463	0.788728	346.144
464.0000	5.11755	-0.00192709	0.778674	345.447
463.5000	5.03821	-0.00193575	0.770991	344.714
463.0000	4.98159	-0.00191888	0.765366	344.042
462.5000	4.93572	-0.00189151	0.760743	343.482
462.0000	4.90033	-0.00188688	0.755227	343.092
461.5000	4.86863	-0.00185277	0.749063	342.869
461.0000	4.85614	-0.00184112	0.741117	342.775
460.5000	4.87507	-0.00181424	0.731939	342.697
460.0000	4.90111	-0.00180781	0.722518	342.505
459.5000	4.92817	-0.00179578	0.713956	342.186
459.0000	4.99841	-0.00179227	0.704632	341.605
458.5000	5.08272	-0.00177843	0.696476	340.805
458.0000	5.1654	-0.00179394	0.691261	339.961
457.5000	5.2258	-0.00176436	0.686925	339.24
457.0000	5.30773	-0.00175964	0.680792	338.534
456.5000	5.37075	-0.00175148	0.673223	337.631
456.0000	5.43818	-0.0017618	0.666788	336.587
455.5000	5.52387	-0.0017584	0.661386	335.668
455.0000	5.59591	-0.00173762	0.656612	335.107
454.5000	5.66396	-0.00173733	0.650137	334.687
454.0000	5.7189	-0.00171416	0.642884	334.228
453.5000	5.79618	-0.0017341	0.637194	333.76
453.0000	5.88608	-0.00170853	0.6321	333.292
452.5000	5.9489	-0.00172386	0.62793	332.817
452.0000	5.97105	-0.00172743	0.623295	332.313
451.5000	5.96673	-0.00172045	0.618815	331.791
451.0000	5.96092	-0.00172546	0.615279	331.319
450.5000	5.9191	-0.00169449	0.611882	331.016
450.0000	5.87246	-0.00166968	0.608024	330.872
449.5000	5.83632	-0.00167238	0.601906	330.668
449.0000	5.78971	-0.00166484	0.59633	330.342
448.5000	5.74578	-0.00165346	0.59291	330.121
448.0000	5.69685	-0.00164296	0.589983	330.212
447.5000	5.63682	-0.00164754	0.585234	330.391
447.0000	5.58118	-0.00163991	0.578927	330.303
446.5000	5.53556	-0.00163182	0.572851	329.938
446.0000	5.50127	-0.00162283	0.568852	329.432
445.5000	5.45891	-0.00160436	0.56371	328.887
445.0000	5.40449	-0.00156382	0.559192	328.279
444.5000	5.32978	-0.00154026	0.555438	327.647
444.0000	5.28489	-0.00152833	0.551461	327.05
443.5000	5.26402	-0.00155061	0.547338	326.471
443.0000	5.25221	-0.00151609	0.544451	326.009
442.5000	5.23686	-0.00151858	0.540878	325.577
442.0000	5.23317	-0.0015204	0.537281	325.202
441.5000	5.22518	-0.00152758	0.534486	324.813
441.0000	5.22252	-0.00148317	0.532038	324.463
440.5000	5.22549	-0.00147322	0.52968	324.118
440.0000	5.21475	-0.00146462	0.526186	323.75
439.5000	5.23266	-0.0014697	0.523913	323.375
439.0000	5.27136	-0.00144295	0.521008	322.98
438.5000	5.30496	-0.00142911	0.516886	322.581
438.0000	5.34901	-0.00141697	0.512719	322.183
437.5000	5.39291	-0.00142514	0.510135	321.838
437.0000	5.43583	-0.00143839	0.507452	321.516
436.5000	5.48396	-0.00141535	0.504536	321.301
436.0000	5.5351	-0.00140064	0.501938	321.111
435.5000	5.57213	-0.00137953	0.499627	320.918
435.0000	5.60861	-0.00137173	0.496164	320.66
434.5000	5.64864	-0.00136845	0.492821	320.37
434.0000	5.70691	-0.00134396	0.488907	320.067
433.5000	5.77167	-0.00130854	0.485319	319.781
433.0000	5.85144	-0.00134693	0.482495	319.478
432.5000	5.92284	-0.00135897	0.479781	319.19
432.0000	6.00636	-0.00135032	0.477677	318.887
431.5000	6.09197	-0.00132401	0.474299	318.584
431.0000	6.13808	-0.00129823	0.471918	318.287
430.5000	6.17334	-0.00131092	0.469934	318
430.0000	6.18707	-0.00131233	0.468626	317.737
429.5000	6.18971	-0.001297	0.46671	317.456
429.0000	6.16986	-0.00128207	0.464581	317.178
428.5000	6.17654	-0.0012541	0.462796	316.9
428.0000	6.19018	-0.0012591	0.460628	316.61
427.5000	6.2053	-0.00126564	0.458539	316.335
427.0000	6.22595	-0.00129722	0.455817	316.066
426.5000	6.24133	-0.00127504	0.454427	315.782
426.0000	6.25596	-0.00128552	0.45284	315.451
425.5000	6.25173	-0.00129341	0.451364	315.074
425.0000	6.2321	-0.0012854	0.449863	314.69
424.5000	6.1996	-0.00128419	0.449079	314.381
424.0000	6.1686	-0.00126305	0.447734	314.15
423.5000	6.13189	-0.00126216	0.446974	313.971
423.0000	6.09379	-0.00126905	0.447318	313.821
422.5000	6.07925	-0.0012845	0.446197	313.682
422.0000	6.06675	-0.0012698	0.443813	313.535
421.5000	6.0687	-0.00127931	0.442486	313.398
421.0000	6.07469	-0.00128127	0.441709	313.279
420.5000	6.09731	-0.00129797	0.440684	313.155
420.0000	6.09054	-0.00131211	0.439888	313.031
419.5000	6.06074	-0.00131305	0.438365	312.896
419.0000	6.02996	-0.00130252	0.438073	312.772
418.5000	5.99523	-0.00129871	0.437876	312.666
418.0000	5.96714	-0.00131507	0.437777	312.613
417.5000	5.93627	-0.00132607	0.438984	312.605
417.0000	5.92451	-0.00132527	0.43906	312.666
416.5000	5.92458	-0.00132657	0.438287	312.717
416.0000	5.92789	-0.00130636	0.437349	312.698
415.5000	5.92918	-0.00132653	0.436469	312.627
415.0000	5.9252	-0.00133505	0.435873	312.536
414.5000	5.93696	-0.00134449	0.435933	312.444
414.0000	5.93055	-0.00133747	0.437139	312.373
413.5000	5.91639	-0.00131396	0.438097	312.306
413.0000	5.91358	-0.00127738	0.438193	312.262
412.5000	5.91534	-0.00127535	0.438923	312.231
412.0000	5.91669	-0.00127508	0.439595	312.22
411.5000	5.92829	-0.00127348	0.439633	312.204
411.0000	5.94192	-0.00127764	0.440141	312.201
410.5000	5.95187	-0.00126425	0.440547	312.237
410.0000	5.95523	-0.00125078	0.441287	312.279
409.5000	5.94927	-0.00124089	0.441708	312.331
409.0000	5.94495	-0.00123922	0.441506	312.375
408.5000	5.90739	-0.00124239	0.442374	312.424
408.0000	5.87494	-0.0012495	0.44279	312.46
407.5000	5.83501	-0.00125255	0.442989	312.483
407.0000	5.79711	-0.00124218	0.442699	312.505
406.5000	5.76243	-0.00125222	0.443077	312.533
406.0000	5.70819	-0.00125124	0.44356	312.527
405.5000	5.68556	-0.00125664	0.443516	312.497
405.0000	5.64976	-0.0012641	0.442958	312.427
404.5000	5.60149	-0.00130119	0.443818	312.33
404.0000	5.52854	-0.00132774	0.444293	312.197
403.5000	5.42516	-0.0013215	0.445352	312.054
403.0000	5.34163	-0.00130717	0.446902	311.916
402.5000	5.27382	-0.00131612	0.448295	311.782
402.0000	5.22903	-0.00132029	0.449671	311.652
401.5000	5.18364	-0.00130652	0.450988	311.532
401.0000	5.12832	-0.00131647	0.451834	311.44
400.5000	5.07352	-0.00130274	0.452332	311.383
400.0000	5.05745	-0.00131304	0.454285	311.362
399.5000	5.02555	-0.00132511	0.456134	311.379
399.0000	5.01115	-0.00132168	0.45909	311.413
398.5000	4.98907	-0.00131688	0.460944	311.462
398.0000	4.97872	-0.00131344	0.461998	311.55
397.5000	4.97073	-0.00130929	0.464246	311.67
397.0000	4.94498	-0.0013297	0.466747	311.829
396.5000	4.94203	-0.00132695	0.468784	312.037
396.0000	4.93153	-0.00130466	0.470664	312.28
395.5000	4.95537	-0.00129904	0.471961	312.55
395.0000	5.00078	-0.00130647	0.473096	312.843
394.5000	5.02895	-0.00131614	0.47441	313.167
394.0000	5.04662	-0.00131951	0.475071	313.506
393.5000	5.04389	-0.00132488	0.475052	313.86
393.0000	5.0386	-0.00132673	0.476315	314.209
392.5000	5.05141	-0.00133042	0.477701	314.533
392.0000	5.04846	-0.00133295	0.479581	314.831
391.5000	5.03111	-0.00131753	0.481394	315.112
391.0000	5.03646	-0.00132852	0.482823	315.37
390.5000	5.0418	-0.00132851	0.484551	315.626
390.0000	5.05528	-0.00133801	0.486518	315.87
389.5000	5.05797	-0.00135406	0.488506	316.101
389.0000	5.07004	-0.00134604	0.489363	316.329
388.5000	5.05571	-0.00134529	0.490924	316.534
388.0000	5.03695	-0.00134398	0.493504	316.742
387.5000	5.04385	-0.0013496	0.496537	316.948
387.0000	5.0281	-0.00134185	0.498824	317.152
386.5000	5.02543	-0.00135156	0.500452	317.329
386.0000	5.02541	-0.00135935	0.501632	317.508
385.5000	5.03347	-0.00137227	0.505082	317.684
385.0000	5.05921	-0.00138075	0.50858	317.839
384.5000	5.10214	-0.00139838	0.511232	317.986
384.0000	5.1422	-0.00138458	0.513979	318.153
383.5000	5.20781	-0.00139533	0.515882	318.326
383.0000	5.25818	-0.00141039	0.518213	318.505
382.5000	5.2827	-0.00142328	0.519262	318.666
382.0000	5.28179	-0.00143559	0.521788	318.848
381.5000	5.29929	-0.00143543	0.523761	319.024
381.0000	5.31242	-0.00143791	0.525968	319.218
380.5000	5.32861	-0.0014468	0.528759	319.406
380.0000	5.39482	-0.00145075	0.531379	319.603
379.5000	5.45452	-0.00147651	0.533061	319.79
379.0000	5.49821	-0.00147397	0.534364	319.975
378.5000	5.55784	-0.00147147	0.53672	320.154
378.0000	5.61368	-0.00148296	0.539074	320.341
377.5000	5.67071	-0.00147472	0.541506	320.516
377.0000	5.71836	-0.001485	0.54245	320.678
376.5000	5.74997	-0.00148393	0.54327	320.841
376.0000	5.77179	-0.00147561	0.545098	320.997
375.5000	5.79627	-0.00151456	0.546209	321.139
375.0000	5.80104	-0.00152351	0.548158	321.284
374.5000	5.81669	-0.00152095	0.549019	321.418
374.0000	5.85891	-0.00151488	0.551059	321.557
373.5000	5.93126	-0.00150568	0.552166	321.696
373.0000	5.97684	-0.00148694	0.554	321.83
372.5000	6.01903	-0.00149472	0.554699	321.953
372.0000	6.05629	-0.00148913	0.555385	322.079
371.5000	6.05772	-0.00149768	0.556216	322.211
371.0000	6.07057	-0.00147517	0.557648	322.358
370.5000	6.07172	-0.00149038	0.558584	322.533
370.0000	6.07651	-0.0015121	0.560197	322.69
369.5000	6.07016	-0.00151768	0.561452	322.854
369.0000	6.05536	-0.00151729	0.562706	323.035
368.5000	6.05685	-0.00152988	0.565085	323.252
368.0000	6.05682	-0.00154485	0.567179	323.474
367.5000	6.037	-0.00153707	0.569099	323.711
367.0000	6.01511	-0.0015187	0.570554	323.963
366.5000	6.00889	-0.00151107	0.572937	324.202
366.0000	6.00591	-0.00150674	0.57577	324.443
365.5000	5.9738	-0.00152133	0.57819	324.68
365.0000	5.94519	-0.00154778	0.579813	324.918
364.5000	5.92937	-0.00158033	0.581925	325.161
364.0000	5.90647	-0.00158466	0.585153	325.417
363.5000	5.89272	-0.0015882	0.588138	325.663
363.0000	5.90001	-0.00159318	0.59012	325.921
362.5000	5.88738	-0.00160281	0.593417	326.175
362.0000	5.88312	-0.00159408	0.595653	326.416
361.5000	5.87623	-0.00160083	0.598102	326.678
361.0000	5.88032	-0.00161981	0.600367	326.927
360.5000	5.89079	-0.00160501	0.602526	327.163
360.0000	5.89469	-0.00161766	0.605226	327.403
359.5000	5.92045	-0.00162076	0.607974	327.645
359.0000	5.98821	-0.00161991	0.609913	327.859
358.5000	6.06758	-0.00160329	0.611354	328.092
358.0000	6.12425	-0.00160577	0.613424	328.333
357.5000	6.17937	-0.00161362	0.61558	328.611
357.0000	6.25232	-0.00161579	0.617831	328.881
356.5000	6.30228	-0.0015977	0.619608	329.118
356.0000	6.35986	-0.00159648	0.621975	329.349
355.5000	6.44887	-0.00160144	0.623204	329.586
355.0000	6.51022	-0.00158978	0.625092	329.831
354.5000	6.56545	-0.00158618	0.627257	330.088
354.0000	6.66552	-0.00161199	0.628716	330.348
353.5000	6.76968	-0.00160954	0.630169	330.616
353.0000	6.86964	-0.0016018	0.631538	330.873
352.5000	6.97067	-0.00159965	0.633526	331.168
352.0000	7.07824	-0.00162872	0.635671	331.462
351.5000	7.17241	-0.00163884	0.63735	331.74
351.0000	7.26181	-0.00164352	0.638948	332.018
350.5000	7.32793	-0.00167568	0.640349	332.304
350.0000	7.37577	-0.00168952	0.643598	332.589
349.5000	7.44	-0.00172576	0.646146	332.863
349.0000	7.49898	-0.0017245	0.649169	333.159
348.5000	7.55771	-0.00173374	0.652106	333.453
348.0000	7.61352	-0.00174516	0.654202	333.761
347.5000	7.66955	-0.00175099	0.655887	334.063
347.0000	7.71457	-0.00175636	0.658518	334.36
346.5000	7.78309	-0.00178542	0.661115	334.659
346.0000	7.84697	-0.001802	0.664061	334.959
345.5000	7.86812	-0.00178569	0.667192	335.252
345.0000	7.87966	-0.00180452	0.670288	335.573
344.5000	7.9094	-0.00181584	0.672534	335.883
344.0000	7.93306	-0.00179489	0.67529	336.173
343.5000	7.94941	-0.00178102	0.677917	336.468
343.0000	7.98754	-0.00176119	0.679575	336.763
342.5000	8.00715	-0.0017784	0.682288	337.071
342.0000	8.0366	-0.00174303	0.685554	337.401
341.5000	8.06635	-0.00176231	0.688717	337.724
341.0000	8.11582	-0.00177598	0.691164	338.014
340.5000	8.17791	-0.00177273	0.693529	338.326
340.0000	8.25435	-0.00177433	0.696813	338.641
339.5000	8.33364	-0.00178936	0.700337	338.968
339.0000	8.412	-0.0018087	0.703994	339.307
338.5000	8.50037	-0.00180236	0.706947	339.66
338.0000	8.58741	-0.00177988	0.70932	340.008
337.5000	8.69232	-0.00179539	0.712062	340.366
337.0000	8.81526	-0.00183544	0.714685	340.707
336.5000	8.9449	-0.00184538	0.7177	341.046
336.0000	9.07525	-0.00186262	0.721254	341.411
335.5000	9.20533	-0.0018861	0.724246	341.759
335.0000	9.35536	-0.00191334	0.727391	342.116
334.5000	9.52473	-0.00192054	0.730682	342.484
334.0000	9.70492	-0.00194959	0.733521	342.878
333.5000	9.89569	-0.00196941	0.736059	343.277
333.0000	10.1022	-0.00195168	0.738033	343.673
332.5000	10.3062	-0.0019401	0.741234	344.053
332.0000	10.5033	-0.00194047	0.743622	344.429
331.5000	10.6805	-0.00195888	0.746166	344.826
331.0000	10.8773	-0.00197707	0.748666	345.251
330.5000	11.0431	-0.00196449	0.751503	345.64
330.0000	11.2085	-0.00197791	0.753813	346.026
329.5000	11.3786	-0.00202159	0.756983	346.442
329.0000	11.5349	-0.00201731	0.759689	346.851
328.5000	11.6939	-0.0019808	0.76355	347.245
328.0000	11.8589	-0.00198318	0.766681	347.606
327.5000	11.9897	-0.0020095	0.769859	347.971
327.0000	12.1299	-0.00199855	0.77315	348.335
326.5000	12.2316	-0.00203164	0.777147	348.757
326.0000	12.3043	-0.00206092	0.78102	349.195
325.5000	12.3887	-0.00204898	0.784796	349.596
325.0000	12.4717	-0.00205108	0.78807	350.005
324.5000	12.5378	-0.00207739	0.792365	350.426
324.0000	12.5879	-0.00210622	0.796031	350.887
323.5000	12.661	-0.00212964	0.800016	351.333
323.0000	12.7324	-0.00215808	0.803858	351.781
322.5000	12.7915	-0.00219081	0.807406	352.219
322.0000	12.8885	-0.00221429	0.811874	352.657
321.5000	12.9823	-0.00221837	0.816645	353.1
321.0000	13.0927	-0.00219127	0.821007	353.559
320.5000	13.22	-0.00222837	0.824929	354.025
320.0000	13.357	-0.00225067	0.827677	354.483
319.5000	13.5062	-0.00228145	0.831465	354.964
319.0000	13.6715	-0.00229001	0.835635	355.478
318.5000	13.8419	-0.00229425	0.840116	356.007
318.0000	14.0391	-0.00228053	0.844497	356.489
317.5000	14.223	-0.00229724	0.848916	356.95
317.0000	14.3797	-0.00228128	0.853217	357.44
316.5000	14.5165	-0.00225633	0.85809	357.927
316.0000	14.6781	-0.00228221	0.86194	358.444
315.5000	14.8259	-0.00228125	0.866345	358.952
315.0000	14.9661	-0.00230697	0.871135	359.519
314.5000	15.1229	-0.00227985	0.875893	360.072
314.0000	15.2963	-0.00227311	0.880001	360.653
313.5000	15.4582	-0.00229614	0.884908	361.265
313.0000	15.6157	-0.00230093	0.889931	361.924
312.5000	15.7336	-0.00232438	0.895396	362.565
312.0000	15.8259	-0.00230195	0.901614	363.237
311.5000	15.9065	-0.00231547	0.907702	363.914
311.0000	15.9815	-0.00232371	0.912893	364.636
310.5000	16.0613	-0.00231136	0.919423	365.426
310.0000	16.1187	-0.002282	0.925156	366.177
309.5000	16.1879	-0.00227478	0.931712	366.958
309.0000	16.2924	-0.0022745	0.938754	367.815
308.5000	16.4285	-0.0022929	0.946717	368.689
308.0000	16.5718	-0.00229745	0.953572	369.526
307.5000	16.7087	-0.00225566	0.96198	370.486
307.0000	16.8782	-0.00221878	0.969751	371.377
306.5000	17.0161	-0.00219098	0.978367	372.357
306.0000	17.1254	-0.00218874	0.986688	373.307
305.5000	17.205	-0.00217942	0.996289	374.345
305.0000	17.2789	-0.00213792	1.00513	375.33
304.5000	17.3251	-0.00215326	1.01406	376.396
304.0000	17.3553	-0.00211206	1.02318	377.486
303.5000	17.3827	-0.0020764	1.03193	378.537
303.0000	17.4103	-0.00203747	1.04215	379.679
302.5000	17.4196	-0.00199445	1.05255	380.811
302.0000	17.4261	-0.00199912	1.0619	381.963
301.5000	17.4571	-0.00199926	1.07119	383.095
301.0000	17.4395	-0.00198626	1.08091	384.246
300.5000	17.3666	-0.00198014	1.08954	385.272
300.0000	17.2485	-0.00198245	1.09874	386.478
299.5000	17.0903	-0.00197019	1.1082	387.619
299.0000	16.9005	-0.00198594	1.1177	388.752
298.5000	16.6629	-0.00201605	1.12726	389.918
298.0000	16.4565	-0.00198287	1.13548	390.992
297.5000	16.267	-0.00193843	1.14271	392.119
297.0000	16.0834	-0.00194029	1.14993	393.11
296.5000	15.8949	-0.00193605	1.1582	394.1
296.0000	15.7537	-0.00193859	1.16653	395.087
295.5000	15.6368	-0.00197399	1.17467	396.077
295.0000	15.5259	-0.00197955	1.18212	397.009
294.5000	15.369	-0.00198162	1.18969	397.985
294.0000	15.1647	-0.00194954	1.19807	399.04
293.5000	14.9002	-0.00192563	1.20536	399.933
293.0000	14.6251	-0.00187759	1.21286	400.939
292.5000	14.3593	-0.00186407	1.22046	401.979
292.0000	14.1033	-0.00181178	1.22813	402.973
291.5000	13.866	-0.00176198	1.23559	403.95
291.0000	13.6373	-0.00169059	1.24245	404.928
290.5000	13.4024	-0.00168604	1.25005	405.958
290.0000	13.1703	-0.0016627	1.25736	406.951
289.5000	12.8881	-0.00164055	1.26552	407.885
289.0000	12.5885	-0.00166614	1.27296	408.787
288.5000	12.2725	-0.00164831	1.28018	409.798
288.0000	11.8883	-0.00161668	1.28726	410.752
287.5000	11.4287	-0.00156178	1.29359	411.754
287.0000	10.9483	-0.001516	1.30041	412.779
286.5000	10.448	-0.00144952	1.30733	413.774
286.0000	9.96777	-0.00143833	1.31469	414.711
285.5000	9.59125	-0.00137129	1.32061	415.631
285.0000	9.25925	-0.00137631	1.3274	416.598
284.5000	8.88892	-0.00135156	1.33383	417.473
284.0000	8.54536	-0.00134195	1.341	418.409
283.5000	8.21092	-0.00136426	1.34834	419.372
283.0000	7.8926	-0.00137894	1.35568	420.302
282.5000	7.58606	-0.00131657	1.36338	421.295
282.0000	7.31005	-0.00123065	1.37073	422.311
281.5000	7.0497	-0.00120586	1.3775	423.288
281.0000	6.81883	-0.00118596	1.38526	424.309
280.5000	6.6233	-0.00110253	1.39345	425.421
280.0000	6.45433	-0.00104872	1.40263	426.574
279.5000	6.34885	-0.000989769	1.41163	427.775
279.0000	6.34585	-0.000927581	1.42054	428.942
278.5000	6.37611	-0.000947444	1.42974	430.206
278.0000	6.4602	-0.000912324	1.43933	431.568
277.5000	6.52548	-0.000856746	1.44832	432.854
277.0000	6.5144	-0.00089131	1.45837	434.252
276.5000	6.47852	-0.000790937	1.46901	435.71
276.0000	6.45339	-0.000795845	1.47921	437.069
275.5000	6.37791	-0.000783003	1.49045	438.619
275.0000	6.32048	-0.000742163	1.5018	440.231
274.5000	6.22503	-0.000702908	1.51346	441.914
274.0000	6.0886	-0.000753589	1.52694	443.776
273.5000	5.88124	-0.000782546	1.54019	445.524
273.0000	5.64633	-0.000752003	1.55417	447.446
272.5000	5.40307	-0.000713572	1.56798	449.44
272.0000	5.11186	-0.00075989	1.58218	451.538
271.5000	4.72502	-0.000782609	1.59782	453.851
271.0000	4.32463	-0.000795649	1.61391	456.166
270.5000	3.91445	-0.000847732	1.631	458.589
270.0000	3.42395	-0.000860599	1.64852	461.116
269.5000	2.79702	-0.000921852	1.66612	463.797
269.0000	2.16041	-0.000951251	1.68402	466.457
268.5000	1.57946	-0.000895006	1.70419	469.394
268.0000	1.05	-0.000874167	1.72422	472.477
267.5000	0.513499	-0.000808178	1.74493	475.703
267.0000	-0.0233828	-0.000767375	1.76785	479.228
266.5000	-0.579063	-0.000740103	1.79189	482.867
266.0000	-1.07986	-0.000751498	1.81418	486.272
265.5000	-1.50013	-0.000742298	1.83802	489.965
265.0000	-1.87453	-0.000725613	1.86401	493.984
264.5000	-2.28204	-0.000809102	1.88892	497.928
264.0000	-2.69727	-0.000823757	1.91464	502.006
263.5000	-3.03437	-0.000758625	1.94294	506.419
263.0000	-3.28781	-0.000868763	1.96892	510.53
262.5000	-3.51061	-0.000899277	1.998	515.239
262.0000	-3.82234	-0.000835679	2.02623	519.884
261.5000	-3.91559	-0.000885651	2.05647	524.707
261.0000	-3.96203	-0.000997688	2.08572	529.457
260.5000	-4.04067	-0.000992302	2.11666	534.641
260.0000	-4.04688	-0.00102941	2.14873	540.026
259.5000	-4.06414	-0.00111468	2.18249	545.635
259.0000	-3.93302	-0.00120453	2.21734	551.5
258.5000	-3.77348	-0.0012135	2.25326	557.64
258.0000	-3.62191	-0.00130715	2.29035	564.079
257.5000	-3.34856	-0.00143952	2.32685	570.443
257.0000	-3.18481	-0.00154209	2.36686	577.456
256.5000	-3.07533	-0.00174709	2.40617	584.43
256.0000	-2.79933	-0.00168549	2.44983	592.144
255.5000	-2.41816	-0.00183607	2.49475	600.201
255.0000	-1.97484	-0.00181074	2.54091	608.615
254.5000	-1.44668	-0.00191887	2.58631	616.957
254.0000	-0.914367	-0.0018384	2.63352	625.649
253.5000	-0.366633	-0.00181274	2.68764	635.693
253.0000	0.106355	-0.00179824	2.73782	645.114
252.5000	0.690669	-0.00183095	2.8149	659.718
252.0000	1.23833	-0.00191211	2.88151	672.461
251.5000	1.66545	-0.00208702	2.94147	684.104
251.0000	2.20942	-0.001929	3.00245	696.222
250.5000	2.58833	-0.00165285	3.06495	708.814
250.0000	2.84714	-0.0016922	3.12536	721.172
249.5000	3.15042	-0.001406	3.1868	733.963
249.0000	3.30636	-0.00130571	3.25244	747.886
248.5000	3.60722	-0.00121585	3.31576	761.394
248.0000	3.76891	-0.000900707	3.3828	775.926
247.5000	3.8366	-0.000712675	3.44659	789.947
247.0000	3.78379	-0.000584127	3.51312	804.816
246.5000	3.53105	-0.000576038	3.57859	819.774
246.0000	3.0097	-0.000513706	3.643	834.683
245.5000	2.08862	-0.000333526	3.70803	849.96
245.0000	1.05707	-0.000194456	3.77004	864.82
244.5000	0.399511	-0.000261879	3.8289	879.225
244.0000	-0.320248	-0.000129586	3.88463	893.155
243.5000	-0.805045	7.5877E-005	3.93378	905.601
243.0000	-1.41899	0.000148905	3.97774	916.943
242.5000	-2.02681	0.000162298	4.02124	928.401
242.0000	-2.44612	-1.12034E-005	4.05615	937.734
241.5000	-2.98479	2.40224E-005	4.09066	947.133
241.0000	-3.32465	7.31397E-005	4.11713	954.374
240.5000	-3.67971	0.00028251	4.14082	961.159
240.0000	-4.0529	-5.84565E-005	4.15945	966.696
239.5000	-3.96267	-2.81141E-005	4.17829	972.529
239.0000	-3.74308	-6.26882E-005	4.19089	976.642
238.5000	-3.5356	0.000218412	4.19906	979.582
238.0000	-3.46381	-0.000168003	4.20523	982.061
237.5000	-3.25527	-0.000231049	4.21034	984.364
237.0000	-2.19163	-0.000190658	4.21479	986.545
236.5000	-0.706647	-8.35419E-005	4.21512	987.796
236.0000	0.0210357	-1.32143E-005	4.21253	988.202
235.5000	0.899298	-0.000121368	4.21016	988.837
235.0000	1.4456	0.000127221	4.2098	989.635
234.5000	2.11231	0.000152491	4.20932	990.452
234.0000	2.49798	-3.82957E-005	4.20636	990.692
233.5000	2.61413	-3.65859E-005	4.20041	990.273
233.0000	3.10187	1.70056E-005	4.1957	990.13
232.5000	3.41943	0.000127205	4.19274	990.739
232.0000	3.84822	-0.000129284	4.18997	991.478
231.5000	4.24068	-0.000129993	4.18432	991.214
231.0000	4.30713	-0.000231321	4.17674	990.557
230.5000	3.86195	-0.000304083	4.17233	990.637
230.0000	3.47363	-0.000504302	4.17065	991.525
229.5000	3.48003	-0.000382069	4.16686	991.965
229.0000	3.71713	-0.000546956	4.15836	991.244
228.5000	3.31779	-0.000761779	4.15066	990.694
228.0000	2.65756	-0.00082907	4.14732	991.134
227.5000	2.29725	-0.000579103	4.14518	991.942
227.0000	1.88297	-0.000651919	4.13861	991.7
226.5000	1.69002	-0.000992554	4.12859	990.786
226.0000	1.39545	-0.000951664	4.12254	990.725
225.5000	1.28478	-0.000589634	4.12007	991.658
225.0000	1.21449	-0.000362392	4.11617	992.107
224.5000	0.999453	-0.000783082	4.1074	991.328
224.0000	0.622056	-0.00106321	4.09983	990.78
223.5000	0.335066	-0.00107562	4.09645	991.416
223.0000	0.0154481	-0.000972546	4.09448	992.425
222.5000	-0.0406574	-0.000892271	4.0859	991.937
222.0000	0.14723	-0.00117653	4.07613	990.985
221.5000	0.541927	-0.00131258	4.0714	991.457
221.0000	0.812494	-0.00111394	4.07	992.459
220.5000	1.10971	-0.000936143	4.06359	992.167
220.0000	1.43441	-0.00118253	4.05399	991.118
219.5000	1.79527	-0.00151765	4.04913	991.121
219.0000	2.05377	-0.00149007	4.04833	992.162
218.5000	2.17951	-0.00146903	4.04468	992.588
218.0000	2.48014	-0.00135836	4.03769	991.792
217.5000	3.02775	-0.00148465	4.0308	991.152
217.0000	3.37289	-0.00219331	4.02798	991.558
216.5000	3.87813	-0.0019037	4.02725	992.804
216.0000	4.4933	-0.00195157	4.02079	992.438
215.5000	4.9491	-0.00160726	4.01196	991.384
215.0000	5.13638	-0.00148363	4.00763	991.431
214.5000	5.47345	-0.00149292	4.00737	992.541
214.0000	5.53874	-0.00145526	4.00403	992.832
213.5000	5.77244	-0.00123839	3.99579	991.892
213.0000	5.60788	-0.00126947	3.98981	991.334
212.5000	5.27783	-0.00122279	3.98897	992.171
212.0000	4.70912	-0.0014169	3.98887	993.119
211.5000	4.26721	-0.00143941	3.98265	992.535
211.0000	3.52239	-0.0017338	3.97572	991.649
210.5000	2.91851	-0.00189298	3.9726	991.862
210.0000	2.35912	-0.00202117	3.9733	992.99
209.5000	1.69916	-0.00215836	3.96991	993.104
209.0000	0.952769	-0.00210304	3.96207	992.1
208.5000	0.299858	-0.00215538	3.95665	991.624
208.0000	-0.335001	-0.00203199	3.95558	992.387
207.5000	-0.780385	-0.00194183	3.95484	993.177
207.0000	-0.850341	-0.00228224	3.94921	992.64
206.5000	-0.768571	-0.00207917	3.94226	991.801
206.0000	-1.11985	-0.0024993	3.93904	991.996
205.5000	-1.51912	-0.00229515	3.93918	992.951
205.0000	-1.84823	-0.00219812	3.93632	993.097
204.5000	-1.97004	-0.00249672	3.9286	992.17
204.0000	-1.87855	-0.00236965	3.92304	991.761
203.5000	-1.75274	-0.00220127	3.92214	992.698
203.0000	-1.61237	-0.00170839	3.92017	993.302
202.5000	-1.22477	-0.00155944	3.91311	992.524
202.0000	-0.864431	-0.0017893	3.90626	991.901
201.5000	-0.5038	-0.00159125	3.90511	992.649
201.0000	-0.225215	-0.00158531	3.90413	993.312
200.5000	0.0211788	-0.00173395	3.89767	992.63
200.0000	0.345237	-0.00173249	3.89171	992.037

##### Extended Information
[Comments]
Sample name	30% S-JS after DT 72 hrs
Comment
User
Division
Company	Labo systeme complexes hors equilibre

[Detailed Information]
Creation date	7/14/2025 3:46 PM

Data array type	Linear data array * 4
Horizontal axis	Wavelength [nm]
Vertical axis(1)	CD [mdeg]
Vertical axis(2)	LD [dOD]
Vertical axis(3)	Abs
Vertical axis(4)	HT [V]
Start	700 nm
End	200 nm
Data interval	0.5 nm
Data points	1001    

[Measurement Information]
Instrument name	CD Jasco
Model name	J-1500
Serial No.	A005261638

Detector	PM-539
Detector S/N	A0052PM539
  Lock-in amp.	X mode
  HT volt	Auto

Detector	EXPML-535
Detector S/N	A0001
  Lock-in amp.	X mode
  HT volt	Auto

Measurement date	7/14/2025 3:46 PM

Overload detect	1
Photometric mode	CD, LD, Abs, HT
Measure range	700 - 200 nm
Data pitch	0.5 nm
CD scale	200 mdeg/1.0 dOD
FL scale	200 mdeg/1.0 dOD
D.I.T.	1 sec
Bandwidth	1.00 nm
Start mode	Immediately
Scanning speed	500 nm/min
Baseline correction	Baseline
Shutter control	Auto

Solvent	water 

