TITLE	5% S-JS 1
DATA TYPE	
ORIGIN	JASCO
OWNER	
DATE	25/09/22
TIME	16:22:37
SPECTROMETER/DATA SYSTEM	
LOCALE	1033
RESOLUTION	
DELTAX	-0.5
XUNITS	NANOMETERS
YUNITS	CD [mdeg]
Y2UNITS	LD [dOD]
Y3UNITS	ABSORBANCE
Y4UNITS	HT [V]
FIRSTX	  700.0000
LASTX	  250.0000
NPOINTS	     901
FIRSTY	     1.44648
MAXY	   105.99039
MINY	    -1.26118
XYDATA
700.0000	1.44648	-0.00259026	0.129357	321.368
699.5000	1.32177	-0.00262018	0.129146	320.803
699.0000	1.37728	-0.00264475	0.128957	320.151
698.5000	0.992241	-0.00266548	0.128863	319.447
698.0000	1.41809	-0.00267147	0.129181	318.78
697.5000	1.44255	-0.00267465	0.129337	318.161
697.0000	1.517	-0.00266731	0.129737	317.584
696.5000	1.7181	-0.00266757	0.129952	317.069
696.0000	1.91467	-0.00265448	0.13026	316.61
695.5000	2.00591	-0.00268546	0.130821	316.258
695.0000	1.86997	-0.00268649	0.131355	316
694.5000	2.01161	-0.00266777	0.131759	315.782
694.0000	2.13084	-0.00267577	0.132089	315.587
693.5000	2.01277	-0.00269174	0.132362	315.411
693.0000	1.94458	-0.00270133	0.132622	315.273
692.5000	2.15834	-0.00269769	0.133056	315.189
692.0000	1.91784	-0.00270618	0.133703	315.186
691.5000	2.08054	-0.00270806	0.134338	315.291
691.0000	2.19893	-0.00269566	0.135096	315.522
690.5000	2.6383	-0.00269463	0.135658	315.835
690.0000	2.71042	-0.00272743	0.136031	316.208
689.5000	2.9801	-0.00274326	0.136324	316.608
689.0000	3.16386	-0.00275059	0.136605	317.012
688.5000	3.11381	-0.00277961	0.13694	317.403
688.0000	3.05942	-0.0028103	0.137136	317.752
687.5000	3.26269	-0.00280704	0.137244	318.077
687.0000	3.14631	-0.00280271	0.137023	318.338
686.5000	3.1867	-0.00283658	0.137168	318.606
686.0000	3.14735	-0.00285105	0.137264	318.867
685.5000	3.05505	-0.00287611	0.137621	319.16
685.0000	3.09231	-0.00289167	0.137918	319.462
684.5000	3.06077	-0.00289952	0.138101	319.763
684.0000	2.97442	-0.00293876	0.138161	320.049
683.5000	3.05766	-0.00294005	0.138277	320.323
683.0000	2.80346	-0.00294561	0.138243	320.54
682.5000	2.54829	-0.00295043	0.138182	320.68
682.0000	2.3206	-0.0029599	0.138052	320.732
681.5000	2.24142	-0.0029721	0.138179	320.731
681.0000	2.26138	-0.00301547	0.13839	320.71
680.5000	2.26467	-0.00303456	0.138388	320.667
680.0000	2.57461	-0.00304462	0.138478	320.635
679.5000	2.43584	-0.00305631	0.138752	320.619
679.0000	2.54774	-0.00305927	0.139152	320.617
678.5000	2.6081	-0.00310037	0.139661	320.626
678.0000	2.89723	-0.00308734	0.139988	320.627
677.5000	2.88062	-0.00308166	0.14021	320.632
677.0000	3.11431	-0.00308948	0.140392	320.652
676.5000	3.25843	-0.00308086	0.140726	320.707
676.0000	3.03045	-0.00309883	0.141006	320.759
675.5000	3.41662	-0.0031153	0.141245	320.822
675.0000	3.19094	-0.00316309	0.141396	320.868
674.5000	3.29318	-0.00317396	0.141693	320.936
674.0000	3.56919	-0.0031817	0.142109	321.019
673.5000	3.5249	-0.00317936	0.142272	321.111
673.0000	3.5778	-0.00320263	0.142766	321.233
672.5000	3.56058	-0.00322605	0.143168	321.35
672.0000	3.66043	-0.00322548	0.143546	321.463
671.5000	3.55282	-0.00323111	0.143885	321.567
671.0000	3.61384	-0.00325058	0.144072	321.672
670.5000	3.4573	-0.00325733	0.144168	321.771
670.0000	3.50692	-0.00327573	0.144375	321.889
669.5000	3.58439	-0.00329063	0.144724	322.021
669.0000	3.41661	-0.00331846	0.145136	322.167
668.5000	3.38751	-0.00337701	0.145376	322.299
668.0000	3.77226	-0.00340598	0.145711	322.447
667.5000	3.95518	-0.00339783	0.146071	322.591
667.0000	4.03422	-0.0034113	0.146244	322.727
666.5000	3.77904	-0.00344183	0.146512	322.849
666.0000	3.62677	-0.00350253	0.14694	322.978
665.5000	3.67281	-0.00352696	0.147294	323.087
665.0000	3.61623	-0.00352416	0.147576	323.163
664.5000	3.50991	-0.00354044	0.147747	323.219
664.0000	3.47825	-0.00357781	0.147956	323.261
663.5000	3.56406	-0.00358515	0.148151	323.299
663.0000	3.19434	-0.00361206	0.14845	323.323
662.5000	3.38468	-0.00363396	0.148806	323.329
662.0000	3.08573	-0.00363319	0.149097	323.313
661.5000	3.39723	-0.00365674	0.149205	323.264
661.0000	3.24089	-0.00366257	0.149211	323.179
660.5000	3.19412	-0.00365971	0.149468	323.091
660.0000	3.09307	-0.00367439	0.149842	322.971
659.5000	3.02437	-0.00370205	0.150134	322.824
659.0000	3.18	-0.00371113	0.15047	322.62
658.5000	3.4986	-0.00372263	0.150746	322.384
658.0000	3.52019	-0.00371099	0.150841	322.134
657.5000	3.66591	-0.00371397	0.151102	321.887
657.0000	3.73142	-0.00374986	0.151442	321.673
656.5000	4.00841	-0.0037545	0.151982	321.462
656.0000	4.1792	-0.00377091	0.152392	321.281
655.5000	4.02641	-0.00379077	0.152768	321.12
655.0000	4.21251	-0.00379375	0.153237	320.988
654.5000	4.30783	-0.00381226	0.153728	320.898
654.0000	4.20736	-0.00384062	0.154301	320.839
653.5000	4.23331	-0.00386131	0.154875	320.816
653.0000	4.09863	-0.00387997	0.155562	320.838
652.5000	4.29373	-0.00390382	0.156196	320.882
652.0000	4.34139	-0.00393776	0.156702	320.945
651.5000	4.22987	-0.00395392	0.157265	321.062
651.0000	4.22257	-0.00399019	0.158078	321.237
650.5000	4.24621	-0.00401969	0.158797	321.448
650.0000	4.31402	-0.00404211	0.159539	321.667
649.5000	4.35693	-0.00406492	0.15997	321.881
649.0000	4.36036	-0.00410203	0.160512	322.076
648.5000	4.47433	-0.00409896	0.160902	322.281
648.0000	4.24827	-0.00413364	0.161425	322.467
647.5000	4.20195	-0.00415882	0.161903	322.633
647.0000	4.38852	-0.00420727	0.162606	322.79
646.5000	4.70517	-0.00423124	0.162893	322.887
646.0000	5.01587	-0.00425498	0.163292	322.943
645.5000	4.78034	-0.00426073	0.163676	322.961
645.0000	5.17662	-0.0042882	0.16437	322.983
644.5000	5.44229	-0.00430456	0.164811	322.961
644.0000	5.18038	-0.00432506	0.165309	322.933
643.5000	5.1265	-0.00435566	0.165774	322.881
643.0000	5.66676	-0.00437901	0.166221	322.813
642.5000	5.72061	-0.00441384	0.166911	322.739
642.0000	6.01822	-0.00445037	0.16744	322.658
641.5000	6.05881	-0.0044755	0.168124	322.575
641.0000	6.17503	-0.0045034	0.168926	322.496
640.5000	6.2487	-0.00455864	0.169404	322.407
640.0000	6.24358	-0.00460219	0.169968	322.325
639.5000	6.51709	-0.00463677	0.17076	322.23
639.0000	6.85523	-0.00463396	0.171507	322.14
638.5000	6.74049	-0.00466734	0.172465	322.073
638.0000	6.67384	-0.00470571	0.173301	322.017
637.5000	6.95121	-0.00477038	0.174108	321.975
637.0000	6.74218	-0.00479132	0.174857	321.935
636.5000	6.6299	-0.00482165	0.175754	321.908
636.0000	6.70885	-0.00486417	0.176521	321.89
635.5000	6.72024	-0.00491106	0.17739	321.89
635.0000	6.87135	-0.00494117	0.178211	321.897
634.5000	6.85616	-0.00497357	0.178983	321.904
634.0000	6.78753	-0.00500187	0.179599	321.901
633.5000	6.59825	-0.00505095	0.180157	321.894
633.0000	6.39935	-0.00509778	0.180973	321.904
632.5000	6.67654	-0.0051419	0.181901	321.9
632.0000	6.7389	-0.00517461	0.182966	321.908
631.5000	7.14253	-0.00519669	0.184018	321.917
631.0000	6.84606	-0.00525832	0.184839	321.904
630.5000	6.77979	-0.00532503	0.18576	321.888
630.0000	6.99582	-0.00536745	0.186581	321.862
629.5000	6.94636	-0.0054295	0.187801	321.851
629.0000	6.84911	-0.00547576	0.188853	321.843
628.5000	7.12358	-0.00550113	0.18992	321.841
628.0000	7.4152	-0.00554829	0.191011	321.846
627.5000	7.67239	-0.00558117	0.192143	321.86
627.0000	7.80366	-0.00560972	0.193222	321.876
626.5000	7.79616	-0.00565949	0.194196	321.901
626.0000	7.68594	-0.00572836	0.195518	321.958
625.5000	7.9273	-0.00577715	0.197039	322.055
625.0000	8.03882	-0.00583422	0.198451	322.166
624.5000	7.91625	-0.00587824	0.199724	322.281
624.0000	7.86853	-0.00594241	0.2009	322.414
623.5000	7.96436	-0.00600512	0.201999	322.554
623.0000	7.73847	-0.00607799	0.203331	322.717
622.5000	8.01221	-0.00610437	0.204776	322.906
622.0000	8.16089	-0.00616231	0.206068	323.096
621.5000	8.19936	-0.0062363	0.207549	323.31
621.0000	8.38418	-0.00628792	0.208854	323.53
620.5000	8.88886	-0.00635627	0.21023	323.75
620.0000	8.94529	-0.00643141	0.211752	323.998
619.5000	8.97038	-0.00648835	0.213717	324.301
619.0000	8.9915	-0.00656373	0.215835	324.632
618.5000	9.05158	-0.00665765	0.217834	324.958
618.0000	9.28899	-0.00673389	0.219716	325.267
617.5000	9.06068	-0.00681391	0.221596	325.572
617.0000	9.34228	-0.0068784	0.223512	325.873
616.5000	10.0333	-0.00696444	0.225449	326.166
616.0000	10.1568	-0.00704323	0.227631	326.465
615.5000	10.3814	-0.00713216	0.229722	326.759
615.0000	10.7132	-0.00720775	0.231739	327.046
614.5000	10.992	-0.00730838	0.233757	327.333
614.0000	11.1861	-0.00738641	0.235786	327.615
613.5000	11.2973	-0.00745232	0.237956	327.901
613.0000	11.6857	-0.00752282	0.240283	328.204
612.5000	11.6341	-0.00759137	0.242612	328.491
612.0000	12.1538	-0.00766656	0.244881	328.772
611.5000	12.8117	-0.00776686	0.247093	329.033
611.0000	13.0279	-0.00786103	0.249423	329.297
610.5000	13.4442	-0.00797837	0.252037	329.576
610.0000	13.5775	-0.0080783	0.254438	329.834
609.5000	13.9283	-0.00815244	0.25687	330.1
609.0000	14.341	-0.00824691	0.259375	330.36
608.5000	14.4473	-0.00834269	0.262177	330.638
608.0000	14.6786	-0.00846471	0.2649	330.894
607.5000	15.0694	-0.00856853	0.26763	331.152
607.0000	15.2618	-0.00866979	0.270741	331.446
606.5000	15.1548	-0.00881284	0.274033	331.74
606.0000	15.5573	-0.00895255	0.2774	332.043
605.5000	16.1701	-0.00910235	0.280992	332.357
605.0000	16.5895	-0.00925246	0.284646	332.668
604.5000	16.6831	-0.00939423	0.288284	332.975
604.0000	16.8102	-0.00955337	0.292036	333.291
603.5000	17.3074	-0.00971881	0.29577	333.61
603.0000	17.8294	-0.00988164	0.299699	333.939
602.5000	18.3118	-0.0100265	0.303702	334.272
602.0000	18.9151	-0.0101714	0.307719	334.603
601.5000	19.6734	-0.0103419	0.312125	334.957
601.0000	20.2937	-0.0105289	0.316928	335.345
600.5000	20.9774	-0.0106994	0.321843	335.724
600.0000	21.4435	-0.0108905	0.327058	336.12
599.5000	22.1158	-0.0110945	0.332382	336.526
599.0000	22.9824	-0.0112907	0.338003	336.94
598.5000	23.6863	-0.0114682	0.343807	337.361
598.0000	24.4601	-0.0116533	0.349503	337.779
597.5000	24.9978	-0.0118522	0.35552	338.226
597.0000	25.6969	-0.0120838	0.361787	338.703
596.5000	26.4127	-0.0123172	0.368209	339.178
596.0000	27.2742	-0.0125261	0.374754	339.682
595.5000	27.8108	-0.0127658	0.38169	340.208
595.0000	28.2489	-0.0129797	0.388763	340.725
594.5000	29.1712	-0.0132144	0.396252	341.298
594.0000	30.5118	-0.013454	0.404703	341.952
593.5000	31.5503	-0.013706	0.413251	342.609
593.0000	32.4479	-0.0139866	0.421982	343.297
592.5000	33.6939	-0.0142892	0.430879	344.033
592.0000	34.7682	-0.0145671	0.439447	344.781
591.5000	35.7176	-0.0148289	0.447891	345.497
591.0000	36.654	-0.0150869	0.457113	346.301
590.5000	37.858	-0.0153433	0.466297	347.14
590.0000	38.8587	-0.0156468	0.476265	348.046
589.5000	40.2958	-0.0159346	0.486336	348.973
589.0000	41.8842	-0.0162139	0.496553	349.921
588.5000	43.0084	-0.0165447	0.507567	350.949
588.0000	44.2616	-0.0168333	0.51883	352.017
587.5000	45.9707	-0.0171727	0.530457	353.133
587.0000	47.4882	-0.017542	0.54247	354.331
586.5000	48.8196	-0.0178616	0.554313	355.487
586.0000	50.4077	-0.0181888	0.566117	356.654
585.5000	51.8548	-0.0184994	0.577287	357.786
585.0000	53.6613	-0.018781	0.589212	358.975
584.5000	54.9065	-0.0190397	0.600505	360.111
584.0000	56.5089	-0.0193445	0.612778	361.339
583.5000	57.7065	-0.0196677	0.62527	362.594
583.0000	59.2563	-0.0199764	0.638181	363.903
582.5000	60.8299	-0.0203098	0.651041	365.201
582.0000	62.8505	-0.0206032	0.663625	366.456
581.5000	64.3787	-0.0208783	0.676299	367.748
581.0000	65.6675	-0.0211772	0.688787	369.01
580.5000	67.3421	-0.0214124	0.700553	370.225
580.0000	69.1644	-0.0216575	0.711941	371.368
579.5000	70.2936	-0.0218933	0.722937	372.477
579.0000	71.7706	-0.0220675	0.733442	373.526
578.5000	73.1271	-0.0222351	0.743403	374.512
578.0000	74.0236	-0.0224275	0.753131	375.477
577.5000	74.2245	-0.0226253	0.763018	376.443
577.0000	74.7826	-0.0227945	0.771773	377.283
576.5000	75.7128	-0.0229571	0.780469	378.123
576.0000	76.1219	-0.023077	0.787894	378.836
575.5000	76.7081	-0.0231418	0.795137	379.497
575.0000	77.3363	-0.0232202	0.801063	380.043
574.5000	77.3765	-0.0232948	0.806753	380.567
574.0000	77.3601	-0.0233733	0.811578	380.991
573.5000	77.5246	-0.0234105	0.815849	381.335
573.0000	77.0854	-0.0234278	0.81973	381.639
572.5000	76.5236	-0.0234581	0.822794	381.83
572.0000	75.6641	-0.0234852	0.825495	381.986
571.5000	75.516	-0.023468	0.827434	382.069
571.0000	75.2275	-0.0234259	0.82895	382.064
570.5000	74.3877	-0.0234333	0.82989	382.019
570.0000	73.5349	-0.0233864	0.830103	381.914
569.5000	73.1917	-0.0233308	0.829715	381.735
569.0000	72.7883	-0.023265	0.828865	381.49
568.5000	72.1546	-0.0231913	0.827692	381.222
568.0000	71.9632	-0.0231092	0.826258	380.876
567.5000	70.9201	-0.0230532	0.824579	380.503
567.0000	70.2675	-0.0229837	0.822674	380.14
566.5000	69.5427	-0.022909	0.820387	379.707
566.0000	69.4819	-0.0227915	0.818094	379.267
565.5000	68.6842	-0.022716	0.815672	378.841
565.0000	68.6377	-0.0226416	0.813194	378.373
564.5000	68.9053	-0.0225339	0.810781	377.929
564.0000	68.8774	-0.022482	0.808561	377.508
563.5000	68.6221	-0.0224064	0.806486	377.086
563.0000	68.174	-0.0223611	0.804399	376.687
562.5000	68.1639	-0.0223054	0.802647	376.311
562.0000	68.3594	-0.0222242	0.80108	375.956
561.5000	68.3118	-0.0222137	0.799691	375.595
561.0000	68.2203	-0.0221412	0.798601	375.265
560.5000	68.7189	-0.0221115	0.797802	374.983
560.0000	68.7268	-0.0220825	0.797194	374.76
559.5000	69.0238	-0.0220922	0.797153	374.58
559.0000	69.9608	-0.0221025	0.797244	374.43
558.5000	70.5436	-0.0221166	0.797955	374.336
558.0000	71.0913	-0.0221577	0.799091	374.298
557.5000	71.5503	-0.0222081	0.800745	374.308
557.0000	72.2491	-0.0222678	0.8028	374.375
556.5000	72.5725	-0.0223509	0.805382	374.512
556.0000	73.2481	-0.0223965	0.80852	374.716
555.5000	73.6164	-0.0224798	0.812271	374.988
555.0000	74.3383	-0.0225844	0.816661	375.32
554.5000	75.2721	-0.0226775	0.821562	375.717
554.0000	76.3018	-0.0228294	0.826899	376.164
553.5000	76.6885	-0.0229669	0.832422	376.611
553.0000	77.9897	-0.0230985	0.838314	377.14
552.5000	78.8937	-0.0232419	0.844783	377.746
552.0000	79.6758	-0.0234445	0.852148	378.408
551.5000	81.2157	-0.0236185	0.859544	379.092
551.0000	82.5465	-0.0237866	0.868044	379.898
550.5000	83.5071	-0.0239551	0.877059	380.758
550.0000	84.9142	-0.0241615	0.887028	381.733
549.5000	86.2691	-0.0243521	0.896708	382.688
549.0000	87.4373	-0.024572	0.907061	383.72
548.5000	88.6675	-0.0247996	0.917842	384.82
548.0000	89.9174	-0.0250392	0.929482	386.002
547.5000	91.1201	-0.0252667	0.941003	387.184
547.0000	92.7899	-0.0255046	0.953311	388.45
546.5000	94.4424	-0.0257308	0.965211	389.716
546.0000	95.6464	-0.0259734	0.977584	391.043
545.5000	97.2463	-0.0261614	0.990153	392.388
545.0000	98.6413	-0.026368	1.00203	393.699
544.5000	99.8362	-0.0265988	1.01468	395.053
544.0000	100.966	-0.0268334	1.0274	396.437
543.5000	101.644	-0.0270292	1.04015	397.817
543.0000	102.618	-0.0272241	1.05273	399.188
542.5000	103.096	-0.0274334	1.06531	400.545
542.0000	104.262	-0.0276894	1.07771	401.876
541.5000	104.813	-0.0278743	1.09002	403.225
541.0000	104.909	-0.0281062	1.10181	404.518
540.5000	105.294	-0.0282714	1.11399	405.834
540.0000	104.925	-0.0284301	1.12581	407.073
539.5000	105.308	-0.0285929	1.13665	408.233
539.0000	105.99	-0.0287025	1.14739	409.386
538.5000	105.621	-0.0289145	1.15765	410.482
538.0000	105.158	-0.029014	1.16681	411.434
537.5000	104.118	-0.029114	1.17577	412.354
537.0000	104.012	-0.0292178	1.18423	413.205
536.5000	103.648	-0.0292868	1.19159	413.923
536.0000	102.625	-0.0293316	1.19861	414.606
535.5000	101.937	-0.0293847	1.20471	415.183
535.0000	100.041	-0.0294618	1.21032	415.702
534.5000	99.0929	-0.0294427	1.21513	416.094
534.0000	97.6315	-0.0294191	1.21922	416.437
533.5000	96.1466	-0.0294694	1.22277	416.701
533.0000	94.8592	-0.0293804	1.2255	416.853
532.5000	93.6746	-0.0293638	1.22768	416.952
532.0000	92.9328	-0.0293047	1.22941	417.006
531.5000	91.6176	-0.0292685	1.23051	416.984
531.0000	89.9074	-0.0292386	1.23112	416.853
530.5000	88.5656	-0.0291706	1.2312	416.669
530.0000	86.4261	-0.0291065	1.23119	416.438
529.5000	85.2006	-0.0290281	1.23056	416.183
529.0000	83.9195	-0.0289765	1.22967	415.876
528.5000	82.3544	-0.0289105	1.2285	415.543
528.0000	81.1164	-0.0288472	1.22714	415.222
527.5000	79.5239	-0.0287747	1.22559	414.839
527.0000	78.8411	-0.0286763	1.22365	414.382
526.5000	78.2618	-0.0285488	1.22163	413.927
526.0000	76.5369	-0.0285168	1.21923	413.443
525.5000	75.2302	-0.0284111	1.21677	412.932
525.0000	74.2265	-0.0282706	1.21431	412.451
524.5000	73.6954	-0.0282129	1.21221	411.998
524.0000	72.5527	-0.0281095	1.21016	411.557
523.5000	71.2837	-0.0280343	1.20808	411.114
523.0000	70.3844	-0.0279472	1.20612	410.679
522.5000	69.2836	-0.0278419	1.20461	410.321
522.0000	68.5855	-0.0277377	1.20306	409.967
521.5000	68.353	-0.0276608	1.20158	409.621
521.0000	67.1128	-0.0275958	1.2005	409.292
520.5000	67.1022	-0.0275222	1.19954	408.988
520.0000	66.2897	-0.0274678	1.19895	408.711
519.5000	65.6967	-0.0273771	1.19842	408.43
519.0000	65.0377	-0.0273149	1.19814	408.199
518.5000	64.4164	-0.0272424	1.19815	408.048
518.0000	63.8542	-0.0271996	1.19843	407.933
517.5000	63.8386	-0.0271587	1.19903	407.859
517.0000	63.8592	-0.0270884	1.19979	407.792
516.5000	63.0335	-0.0270413	1.20057	407.733
516.0000	62.5716	-0.0269888	1.20151	407.701
515.5000	61.7921	-0.0269809	1.20264	407.716
515.0000	61.3835	-0.0269478	1.20387	407.717
514.5000	60.7898	-0.0269309	1.2052	407.747
514.0000	59.807	-0.0269391	1.20659	407.756
513.5000	59.0825	-0.0269259	1.20794	407.755
513.0000	57.9433	-0.0268646	1.20922	407.77
512.5000	56.4889	-0.0268552	1.21055	407.806
512.0000	55.2591	-0.0268343	1.21156	407.81
511.5000	54.1236	-0.026792	1.21233	407.805
511.0000	53.2576	-0.0267488	1.21297	407.753
510.5000	52.0177	-0.0267451	1.21306	407.617
510.0000	50.2426	-0.0267193	1.21301	407.434
509.5000	48.4508	-0.0267028	1.21269	407.18
509.0000	46.8815	-0.0266529	1.21202	406.872
508.5000	45.3433	-0.0265924	1.21073	406.539
508.0000	43.7195	-0.0265285	1.20894	406.147
507.5000	42.3366	-0.0264498	1.20675	405.729
507.0000	41.2257	-0.0263313	1.20409	405.276
506.5000	39.7229	-0.0262513	1.20116	404.782
506.0000	38.2557	-0.0262013	1.19781	404.261
505.5000	36.4639	-0.0260795	1.1939	403.652
505.0000	35.5824	-0.0259589	1.18949	402.99
504.5000	33.8948	-0.0258291	1.18404	402.174
504.0000	32.5871	-0.0256572	1.17833	401.32
503.5000	31.535	-0.0255387	1.1721	400.395
503.0000	29.6171	-0.0254034	1.16492	399.349
502.5000	27.9785	-0.0252771	1.15795	398.348
502.0000	26.5461	-0.0250969	1.15024	397.255
501.5000	24.9366	-0.024921	1.14207	396.102
501.0000	23.7244	-0.024717	1.13311	394.814
500.5000	22.2358	-0.0245117	1.12368	393.396
500.0000	21.3514	-0.0243311	1.11379	391.805
499.5000	20.0818	-0.024135	1.10343	390.038
499.0000	18.6073	-0.0239048	1.09196	387.98
498.5000	17.001	-0.0236638	1.08074	385.886
498.0000	15.9675	-0.023458	1.06932	383.793
497.5000	15.3251	-0.0231579	1.05728	381.729
497.0000	14.2674	-0.0228964	1.04575	379.971
496.5000	13.1189	-0.0226601	1.03348	378.284
496.0000	12.4018	-0.0223978	1.02147	376.699
495.5000	11.7195	-0.0221304	1.00858	375.043
495.0000	10.801	-0.0218751	0.996121	373.46
494.5000	9.87795	-0.0216008	0.983807	371.916
494.0000	9.49124	-0.0213529	0.972404	370.501
493.5000	8.54401	-0.0210877	0.960411	369.02
493.0000	8.25551	-0.0208627	0.949153	367.673
492.5000	7.72945	-0.0206271	0.93721	366.283
492.0000	6.84994	-0.0203465	0.924391	364.822
491.5000	6.11525	-0.0201057	0.912644	363.524
491.0000	5.42416	-0.0198349	0.90102	362.321
490.5000	4.84625	-0.0195982	0.889861	361.211
490.0000	5.01618	-0.0193559	0.878596	360.071
489.5000	4.34441	-0.0191466	0.867732	358.823
489.0000	4.10522	-0.0189452	0.856338	357.276
488.5000	3.85185	-0.018718	0.845671	355.652
488.0000	3.28597	-0.0185189	0.835236	353.956
487.5000	2.74908	-0.0182992	0.825083	352.216
487.0000	2.2309	-0.0181142	0.815847	350.6
486.5000	2.09961	-0.0178903	0.806277	349.04
486.0000	2.21154	-0.0177113	0.797255	347.738
485.5000	2.264	-0.01752	0.788505	346.594
485.0000	2.25074	-0.0173355	0.779486	345.476
484.5000	2.02811	-0.0171089	0.77075	344.442
484.0000	1.74303	-0.0168993	0.761908	343.452
483.5000	1.54865	-0.0167216	0.75356	342.567
483.0000	1.5531	-0.0165211	0.745096	341.721
482.5000	1.56713	-0.0163306	0.737438	340.997
482.0000	1.54942	-0.0161779	0.730072	340.32
481.5000	1.41501	-0.0159796	0.722465	339.663
481.0000	1.37577	-0.0158325	0.715522	339.054
480.5000	1.42698	-0.0156778	0.708375	338.382
480.0000	1.1873	-0.0155359	0.700711	337.41
479.5000	0.947828	-0.0153649	0.693254	336.173
479.0000	0.853914	-0.0152013	0.686469	334.978
478.5000	0.887551	-0.0150478	0.680624	334.152
478.0000	0.634804	-0.0148963	0.674145	333.39
477.5000	0.553473	-0.0147417	0.667686	332.553
477.0000	0.257363	-0.0145852	0.660923	331.47
476.5000	0.29621	-0.0144124	0.653051	329.997
476.0000	0.348063	-0.0142467	0.645333	328.407
475.5000	0.406774	-0.0140802	0.63756	326.672
475.0000	0.427026	-0.0139112	0.629662	324.785
474.5000	0.419592	-0.0137582	0.622125	322.811
474.0000	0.393737	-0.0135891	0.614874	320.718
473.5000	0.14133	-0.0133991	0.607166	318.566
473.0000	0.0408804	-0.0132015	0.599895	316.749
472.5000	-0.323331	-0.0129768	0.592427	315.341
472.0000	-0.484247	-0.0127713	0.585406	314.422
471.5000	-0.30325	-0.0125742	0.577933	313.915
471.0000	-0.217687	-0.0124186	0.571514	313.654
470.5000	-0.225285	-0.0122668	0.564227	313.164
470.0000	-0.312185	-0.0121285	0.557106	312.349
469.5000	-0.30135	-0.0119362	0.549746	311.269
469.0000	-0.24376	-0.0117324	0.541882	310.078
468.5000	-0.555512	-0.0115282	0.534359	309.052
468.0000	-0.647938	-0.0113461	0.527145	308.314
467.5000	-0.884437	-0.0111504	0.520271	307.886
467.0000	-0.87957	-0.010963	0.514023	307.709
466.5000	-0.805432	-0.0107601	0.507841	307.761
466.0000	-0.83315	-0.0105604	0.501281	308.039
465.5000	-0.850271	-0.0103898	0.494282	308.442
465.0000	-0.858836	-0.0102106	0.486751	308.693
464.5000	-0.970659	-0.0100524	0.478854	308.467
464.0000	-0.916909	-0.00987631	0.471351	307.902
463.5000	-0.911326	-0.00969556	0.464466	307.289
463.0000	-1.19512	-0.00952511	0.458145	306.729
462.5000	-1.21006	-0.0093405	0.451654	306.263
462.0000	-1.18785	-0.00916174	0.445195	305.961
461.5000	-1.17503	-0.0090073	0.439051	305.813
461.0000	-1.26118	-0.00883027	0.433131	305.794
460.5000	-1.05495	-0.00868618	0.426703	305.784
460.0000	-0.881159	-0.00851581	0.420486	305.687
459.5000	-0.692413	-0.00836368	0.414564	305.468
459.0000	-0.657149	-0.00822473	0.40845	305.034
458.5000	-0.534959	-0.00809028	0.402658	304.397
458.0000	-0.545088	-0.00795261	0.397135	303.68
457.5000	-0.5358	-0.00781002	0.391854	303.076
457.0000	-0.466721	-0.00766267	0.386292	302.515
456.5000	-0.415039	-0.00751332	0.380697	301.793
456.0000	-0.0942405	-0.00736005	0.37517	300.923
455.5000	-0.0169445	-0.00719745	0.37024	300.147
455.0000	0.0387598	-0.00704421	0.365482	299.688
454.5000	0.336716	-0.00690158	0.360547	299.373
454.0000	0.279799	-0.00677695	0.35537	299.029
453.5000	0.494887	-0.00663976	0.350504	298.661
453.0000	0.341611	-0.00651719	0.346136	298.301
452.5000	0.391882	-0.00640799	0.34192	297.939
452.0000	0.525239	-0.00627322	0.337442	297.547
451.5000	0.213291	-0.00616943	0.332856	297.127
451.0000	0.13022	-0.00605308	0.32866	296.756
450.5000	0.190904	-0.00590796	0.324506	296.516
450.0000	0.158199	-0.00582193	0.320673	296.44
449.5000	0.48917	-0.0057215	0.316684	296.329
449.0000	0.391957	-0.00561067	0.312838	296.088
448.5000	0.44984	-0.00550801	0.309218	295.897
448.0000	0.361653	-0.00542553	0.305889	295.99
447.5000	0.355457	-0.00532342	0.302314	296.192
447.0000	0.679645	-0.00525327	0.298369	296.179
446.5000	0.661231	-0.00516706	0.294646	295.887
446.0000	0.545926	-0.00506218	0.290909	295.463
445.5000	0.630873	-0.00495378	0.287193	294.999
445.0000	0.516339	-0.00484232	0.283629	294.488
444.5000	0.408305	-0.00474806	0.279964	293.941
444.0000	0.295921	-0.00467508	0.276414	293.415
443.5000	0.219432	-0.00455443	0.273087	292.922
443.0000	0.322216	-0.00446227	0.269999	292.526
442.5000	0.465885	-0.00437085	0.266784	292.143
442.0000	0.386588	-0.00429894	0.263908	291.823
441.5000	0.46835	-0.00418505	0.260816	291.481
441.0000	0.320244	-0.00409344	0.257856	291.166
440.5000	0.38856	-0.00402301	0.255018	290.864
440.0000	0.350388	-0.00393048	0.252025	290.554
439.5000	0.366582	-0.00383018	0.248837	290.235
439.0000	0.335738	-0.00373054	0.245351	289.894
438.5000	0.224153	-0.00363625	0.24184	289.547
438.0000	0.0659413	-0.00354162	0.238443	289.227
437.5000	0.179836	-0.00344144	0.235233	288.925
437.0000	0.216866	-0.00335256	0.232103	288.652
436.5000	0.469156	-0.00327897	0.229217	288.453
436.0000	0.512187	-0.00320177	0.226689	288.287
435.5000	0.510935	-0.00311155	0.223794	288.104
435.0000	0.605311	-0.00304676	0.221063	287.879
434.5000	0.563395	-0.00297588	0.21844	287.624
434.0000	0.588127	-0.00288983	0.215785	287.352
433.5000	0.457414	-0.0028386	0.213394	287.083
433.0000	0.619327	-0.00278526	0.210863	286.798
432.5000	0.502544	-0.00271106	0.2084	286.524
432.0000	0.647406	-0.00263661	0.206136	286.253
431.5000	0.773822	-0.00255335	0.203809	285.976
431.0000	0.73846	-0.00249187	0.201704	285.71
430.5000	0.832525	-0.00241161	0.199419	285.432
430.0000	0.923204	-0.00235534	0.197397	285.171
429.5000	0.907889	-0.00230206	0.195326	284.891
429.0000	0.933087	-0.00224466	0.193311	284.621
428.5000	1.1309	-0.00216842	0.191302	284.351
428.0000	1.1856	-0.00210624	0.189388	284.077
427.5000	1.3731	-0.00205924	0.187565	283.827
427.0000	1.38758	-0.00200685	0.185838	283.576
426.5000	1.20121	-0.00196316	0.1841	283.297
426.0000	1.22849	-0.0019112	0.182519	282.988
425.5000	1.1339	-0.00187542	0.180753	282.623
425.0000	1.11216	-0.001818	0.17925	282.261
424.5000	1.11983	-0.0017607	0.17788	281.955
424.0000	1.26009	-0.00171962	0.176558	281.717
423.5000	1.12283	-0.00167007	0.175242	281.529
423.0000	0.89536	-0.00162225	0.173819	281.353
422.5000	1.0417	-0.00157851	0.172287	281.182
422.0000	0.957961	-0.00154282	0.171158	281.03
421.5000	1.34137	-0.00148542	0.170093	280.892
421.0000	1.30039	-0.00145807	0.168947	280.757
420.5000	1.24548	-0.00142805	0.167925	280.622
420.0000	1.1914	-0.00139762	0.166949	280.489
419.5000	1.09194	-0.00134665	0.165787	280.337
419.0000	0.987311	-0.00131516	0.164835	280.195
418.5000	1.06913	-0.00127957	0.163994	280.074
418.0000	1.17832	-0.00124483	0.163213	279.99
417.5000	1.30938	-0.0012064	0.162521	279.949
417.0000	1.48496	-0.00117115	0.161914	279.968
416.5000	1.52413	-0.00115587	0.161329	279.985
416.0000	1.59862	-0.00112962	0.160751	279.946
415.5000	1.44264	-0.00112062	0.160013	279.851
415.0000	1.55714	-0.00108821	0.159507	279.746
414.5000	1.74611	-0.00106718	0.159385	279.637
414.0000	1.75617	-0.00105736	0.158965	279.54
413.5000	1.59145	-0.00103784	0.158409	279.441
413.0000	1.22793	-0.00102567	0.158239	279.36
412.5000	1.12044	-0.00103187	0.157824	279.293
412.0000	1.31072	-0.000990492	0.157593	279.235
411.5000	1.38771	-0.000982461	0.157305	279.19
411.0000	1.34492	-0.000972876	0.157115	279.157
410.5000	1.40356	-0.000970037	0.157014	279.143
410.0000	1.56182	-0.00095701	0.157062	279.156
409.5000	1.30908	-0.000942274	0.157005	279.171
409.0000	1.27981	-0.000943508	0.156865	279.18
408.5000	1.04624	-0.000937017	0.156826	279.184
408.0000	1.05614	-0.000938044	0.156802	279.178
407.5000	0.881388	-0.000925839	0.156757	279.157
407.0000	1.07557	-0.000904832	0.15688	279.14
406.5000	1.15661	-0.00091589	0.156884	279.12
406.0000	0.959684	-0.00091494	0.156889	279.08
405.5000	1.0894	-0.000908893	0.15708	279.014
405.0000	1.12558	-0.000890311	0.157327	278.915
404.5000	1.1558	-0.000872169	0.157474	278.795
404.0000	1.10997	-0.000857236	0.157931	278.659
403.5000	1.10648	-0.000848729	0.158225	278.496
403.0000	1.1484	-0.000840025	0.158487	278.334
402.5000	1.008	-0.000837367	0.15907	278.169
402.0000	0.783161	-0.000838714	0.159532	278.02
401.5000	0.931571	-0.000822146	0.159914	277.851
401.0000	0.988386	-0.00082229	0.160407	277.719
400.5000	1.10459	-0.000818644	0.160978	277.628
400.0000	1.15086	-0.000820121	0.161465	277.564
399.5000	1.26717	-0.000808028	0.161791	277.524
399.0000	1.37712	-0.000805078	0.162384	277.511
398.5000	1.48637	-0.000810643	0.163074	277.507
398.0000	1.6234	-0.000817267	0.163826	277.536
397.5000	1.71252	-0.000819238	0.164495	277.594
397.0000	1.68483	-0.000849155	0.165181	277.688
396.5000	2.19554	-0.000848048	0.165771	277.81
396.0000	2.38137	-0.000853771	0.166431	277.961
395.5000	2.45176	-0.000858074	0.167124	278.146
395.0000	2.51677	-0.000882317	0.167865	278.36
394.5000	2.68811	-0.000885603	0.168575	278.595
394.0000	2.81912	-0.000879511	0.169215	278.842
393.5000	2.95328	-0.000889348	0.169917	279.097
393.0000	2.87168	-0.000903411	0.170797	279.367
392.5000	2.99072	-0.000917566	0.171579	279.604
392.0000	2.95242	-0.000919798	0.17269	279.822
391.5000	2.88382	-0.000933024	0.173656	280.005
391.0000	2.79722	-0.000953617	0.174672	280.177
390.5000	2.64117	-0.000963969	0.175811	280.356
390.0000	2.78527	-0.000973935	0.176696	280.528
389.5000	2.98221	-0.000957469	0.177832	280.691
389.0000	3.13427	-0.000971788	0.179037	280.829
388.5000	3.00594	-0.000981639	0.1803	280.968
388.0000	2.75261	-0.00101264	0.181649	281.105
387.5000	2.78943	-0.00102994	0.183027	281.236
387.0000	2.83587	-0.00104435	0.184257	281.349
386.5000	2.72652	-0.00105658	0.185634	281.454
386.0000	2.81279	-0.00106575	0.187065	281.551
385.5000	3.01162	-0.0010847	0.188852	281.652
385.0000	2.98001	-0.00111886	0.190376	281.74
384.5000	2.99061	-0.00112654	0.192042	281.834
384.0000	3.15534	-0.00114391	0.193629	281.923
383.5000	3.05792	-0.00116344	0.195138	282.02
383.0000	3.12456	-0.0011885	0.19667	282.117
382.5000	3.37575	-0.00118558	0.198079	282.221
382.0000	3.44808	-0.00120762	0.199674	282.313
381.5000	3.35271	-0.00122623	0.201067	282.401
381.0000	3.06035	-0.00124823	0.202496	282.509
380.5000	3.14154	-0.00126396	0.203593	282.611
380.0000	3.23546	-0.00128427	0.204842	282.718
379.5000	3.43905	-0.00128278	0.20608	282.827
379.0000	3.52217	-0.00130117	0.207338	282.938
378.5000	3.44657	-0.00131132	0.20841	283.036
378.0000	3.47243	-0.00132803	0.209354	283.134
377.5000	3.55455	-0.00134536	0.210301	283.23
377.0000	3.54939	-0.0013597	0.21098	283.309
376.5000	3.75591	-0.00135783	0.211764	283.379
376.0000	3.89746	-0.00137256	0.212674	283.451
375.5000	4.02605	-0.00139138	0.213415	283.51
375.0000	4.15458	-0.00140714	0.214133	283.574
374.5000	4.27752	-0.00142329	0.214774	283.627
374.0000	4.28636	-0.00146045	0.215526	283.673
373.5000	4.35006	-0.00149161	0.216264	283.73
373.0000	4.38238	-0.00151302	0.217184	283.792
372.5000	4.36187	-0.00153379	0.217977	283.846
372.0000	4.57321	-0.00153872	0.218771	283.907
371.5000	4.63829	-0.00155234	0.219572	283.973
371.0000	4.72008	-0.00157234	0.220411	284.055
370.5000	4.78543	-0.00160226	0.221346	284.145
370.0000	4.90354	-0.00161807	0.222279	284.236
369.5000	5.00495	-0.00165049	0.223303	284.334
369.0000	5.02724	-0.00167366	0.224448	284.444
368.5000	5.10542	-0.00169885	0.225838	284.595
368.0000	5.17016	-0.00172427	0.227114	284.741
367.5000	5.24403	-0.00174638	0.228446	284.891
367.0000	5.37513	-0.00176022	0.229527	285.029
366.5000	5.4659	-0.00177924	0.231161	285.198
366.0000	5.45244	-0.00180197	0.232713	285.362
365.5000	5.79711	-0.00179341	0.234008	285.516
365.0000	5.83663	-0.00181349	0.235319	285.675
364.5000	6.00768	-0.0018503	0.23667	285.834
364.0000	6.12015	-0.00187183	0.238154	286.001
363.5000	5.88742	-0.00191062	0.239668	286.174
363.0000	5.74278	-0.00191969	0.24121	286.343
362.5000	6.09533	-0.00193083	0.242532	286.502
362.0000	6.09582	-0.00197334	0.243873	286.66
361.5000	6.19506	-0.00198742	0.245229	286.814
361.0000	6.03867	-0.00201642	0.246618	286.974
360.5000	5.98913	-0.0020452	0.247879	287.122
360.0000	6.15651	-0.00206284	0.249086	287.27
359.5000	6.40676	-0.00207299	0.250334	287.415
359.0000	6.35862	-0.00211964	0.251641	287.565
358.5000	6.3688	-0.0021431	0.253045	287.723
358.0000	6.60567	-0.00217634	0.254325	287.88
357.5000	6.75676	-0.00220785	0.255731	288.046
357.0000	6.87299	-0.00224384	0.25697	288.205
356.5000	6.71399	-0.00227026	0.258296	288.357
356.0000	6.81568	-0.00230011	0.259566	288.505
355.5000	6.91595	-0.00232786	0.260863	288.664
355.0000	6.99085	-0.00235819	0.262286	288.82
354.5000	7.17189	-0.00240044	0.263584	288.984
354.0000	7.04687	-0.00242476	0.265136	289.158
353.5000	7.35514	-0.00244556	0.266417	289.318
353.0000	7.34489	-0.00247278	0.26787	289.491
352.5000	7.72137	-0.00250447	0.269341	289.676
352.0000	7.98277	-0.00252856	0.270776	289.854
351.5000	8.02321	-0.00256141	0.272288	290.031
351.0000	7.99481	-0.00261284	0.273764	290.207
350.5000	8.17595	-0.00263081	0.275278	290.385
350.0000	8.18488	-0.00266833	0.276753	290.562
349.5000	8.36108	-0.00269934	0.27811	290.733
349.0000	8.29343	-0.00272088	0.279572	290.916
348.5000	8.23378	-0.00275798	0.281318	291.11
348.0000	8.50955	-0.00277983	0.283006	291.29
347.5000	8.5687	-0.00281275	0.284649	291.478
347.0000	8.60452	-0.00285039	0.286241	291.664
346.5000	8.50778	-0.00289854	0.287914	291.853
346.0000	8.65831	-0.00293649	0.289654	292.03
345.5000	8.69752	-0.0029824	0.291416	292.215
345.0000	8.82608	-0.00303087	0.293263	292.412
344.5000	9.12229	-0.00307456	0.294956	292.594
344.0000	9.06564	-0.0031174	0.296553	292.766
343.5000	9.11388	-0.00317183	0.298295	292.953
343.0000	9.11327	-0.00321596	0.299901	293.141
342.5000	9.32039	-0.00324973	0.301734	293.34
342.0000	9.52147	-0.00329353	0.303532	293.55
341.5000	9.69741	-0.00334179	0.305337	293.749
341.0000	9.76854	-0.00338017	0.306957	293.93
340.5000	10.103	-0.00343624	0.30891	294.13
340.0000	10.3276	-0.00346917	0.310526	294.327
339.5000	10.5113	-0.00352229	0.31223	294.533
339.0000	10.7483	-0.00357566	0.313828	294.732
338.5000	11.0334	-0.00362498	0.315403	294.935
338.0000	11.5074	-0.00366528	0.317234	295.155
337.5000	11.8254	-0.00371537	0.319004	295.383
337.0000	12.116	-0.00377554	0.320897	295.614
336.5000	12.2349	-0.00382626	0.322588	295.832
336.0000	12.3534	-0.00389293	0.324604	296.076
335.5000	12.4662	-0.00395762	0.326601	296.318
335.0000	12.9884	-0.00401741	0.328475	296.547
334.5000	13.2044	-0.00407264	0.330406	296.79
334.0000	13.2724	-0.00415935	0.332383	297.04
333.5000	13.5216	-0.00423362	0.334697	297.311
333.0000	13.6697	-0.00431635	0.336802	297.577
332.5000	13.9861	-0.0043697	0.338855	297.835
332.0000	14.2041	-0.00443154	0.34084	298.087
331.5000	14.3218	-0.00450941	0.343005	298.368
331.0000	14.5211	-0.00459906	0.345515	298.666
330.5000	14.9065	-0.00466485	0.347808	298.938
330.0000	15.3119	-0.0047392	0.350231	299.221
329.5000	15.5574	-0.00483104	0.352629	299.51
329.0000	15.8402	-0.00491157	0.355165	299.804
328.5000	16.0007	-0.00500047	0.357518	300.069
328.0000	16.1878	-0.00508736	0.36008	300.332
327.5000	16.4945	-0.00516895	0.362518	300.579
327.0000	16.6998	-0.00525345	0.364844	300.808
326.5000	16.7583	-0.00533185	0.367706	301.113
326.0000	16.9594	-0.00542851	0.370527	301.413
325.5000	17.0904	-0.00549335	0.373166	301.704
325.0000	17.2614	-0.00557922	0.375669	301.984
324.5000	17.7304	-0.0056392	0.378545	302.287
324.0000	17.9846	-0.0057156	0.381465	302.607
323.5000	18.2136	-0.00583097	0.384458	302.935
323.0000	18.7705	-0.00592374	0.387397	303.247
322.5000	18.9069	-0.0059934	0.390181	303.557
322.0000	19.1537	-0.00608514	0.39308	303.878
321.5000	19.3893	-0.00616126	0.395821	304.184
321.0000	19.6256	-0.00621219	0.398549	304.493
320.5000	19.7361	-0.00628999	0.401482	304.812
320.0000	20.4645	-0.00637071	0.404333	305.138
319.5000	20.7645	-0.00643323	0.407217	305.475
319.0000	21.2744	-0.00650302	0.410426	305.852
318.5000	21.7411	-0.00658852	0.413644	306.23
318.0000	22.1476	-0.00665063	0.416745	306.557
317.5000	22.5357	-0.00672182	0.419918	306.875
317.0000	23.0553	-0.00677885	0.423193	307.211
316.5000	23.3804	-0.00684507	0.426467	307.554
316.0000	23.7586	-0.00692416	0.43	307.931
315.5000	24.0343	-0.00699072	0.433224	308.281
315.0000	24.2946	-0.00704215	0.43684	308.678
314.5000	24.479	-0.00709582	0.440689	309.087
314.0000	25.0388	-0.00714944	0.444727	309.51
313.5000	25.3402	-0.00721243	0.448888	309.947
313.0000	25.726	-0.00727396	0.453565	310.436
312.5000	26.2521	-0.00734066	0.457992	310.914
312.0000	26.6597	-0.00740629	0.462492	311.41
311.5000	26.8652	-0.00745547	0.467131	311.913
311.0000	27.0394	-0.00751341	0.472134	312.447
310.5000	27.2943	-0.00757901	0.477653	313.033
310.0000	27.811	-0.00763196	0.482856	313.599
309.5000	28.1035	-0.00770395	0.488346	314.202
309.0000	28.2454	-0.00779713	0.494068	314.858
308.5000	28.7051	-0.00787709	0.500153	315.542
308.0000	29.2867	-0.00796172	0.506005	316.184
307.5000	29.4444	-0.00803999	0.512914	316.908
307.0000	29.9707	-0.00812003	0.519481	317.603
306.5000	30.4765	-0.00819286	0.526547	318.355
306.0000	30.9736	-0.00826898	0.533589	319.099
305.5000	30.9984	-0.00836043	0.54085	319.879
305.0000	31.3855	-0.00842984	0.548058	320.641
304.5000	31.6738	-0.00847993	0.555741	321.451
304.0000	32.2249	-0.00853064	0.563685	322.293
303.5000	32.2425	-0.00859634	0.571181	323.087
303.0000	32.8486	-0.00864617	0.579224	323.941
302.5000	33.2341	-0.00868392	0.587003	324.789
302.0000	33.4352	-0.0087248	0.594904	325.643
301.5000	33.4388	-0.00874809	0.602925	326.512
301.0000	33.6692	-0.00875515	0.610774	327.37
300.5000	33.7644	-0.00874978	0.617923	328.124
300.0000	33.9513	-0.00873615	0.62598	328.988
299.5000	34.0049	-0.0087074	0.633685	329.824
299.0000	34.2512	-0.00867541	0.641217	330.654
298.5000	34.2347	-0.00862219	0.649109	331.504
298.0000	34.2281	-0.00860807	0.656275	332.293
297.5000	34.0853	-0.00854885	0.66357	333.105
297.0000	33.7926	-0.00849748	0.670158	333.822
296.5000	33.3672	-0.00843034	0.676608	334.528
296.0000	33.045	-0.00837694	0.683221	335.217
295.5000	32.8083	-0.0083004	0.690064	335.902
295.0000	32.7209	-0.00821722	0.696511	336.572
294.5000	32.2454	-0.00813998	0.70287	337.273
294.0000	31.8279	-0.00806412	0.709441	338.015
293.5000	31.7304	-0.00797387	0.715023	338.648
293.0000	31.3341	-0.00789325	0.721132	339.334
292.5000	31.1077	-0.00779132	0.727555	340.051
292.0000	30.66	-0.00770533	0.7336	340.743
291.5000	30.7707	-0.00761065	0.739664	341.429
291.0000	30.1639	-0.00751475	0.745662	342.11
290.5000	30.0408	-0.00742236	0.751783	342.822
290.0000	29.2448	-0.00731423	0.757657	343.512
289.5000	28.5816	-0.00719748	0.763348	344.167
289.0000	28.6767	-0.00711745	0.769129	344.824
288.5000	28.2202	-0.00699985	0.775556	345.554
288.0000	27.7247	-0.00687806	0.781624	346.278
287.5000	27.6469	-0.00675835	0.787809	347.049
287.0000	27.1624	-0.00665257	0.794048	347.839
286.5000	26.7713	-0.0065513	0.800469	348.612
286.0000	26.2943	-0.00643543	0.806959	349.349
285.5000	25.583	-0.00630976	0.813652	350.099
285.0000	25.0807	-0.00617488	0.820594	350.887
284.5000	24.5568	-0.00605987	0.826967	351.629
284.0000	24.0334	-0.00596484	0.833963	352.441
283.5000	23.0363	-0.00584765	0.841321	353.288
283.0000	22.1202	-0.00574184	0.848345	354.092
282.5000	21.6536	-0.00561329	0.856139	354.978
282.0000	21.3447	-0.00550338	0.863858	355.881
281.5000	20.5377	-0.00539264	0.87167	356.779
281.0000	20.4154	-0.00529788	0.8797	357.712
280.5000	19.7004	-0.00517685	0.888273	358.726
280.0000	18.9418	-0.00504711	0.897383	359.785
279.5000	18.8656	-0.00492185	0.906834	360.883
279.0000	18.3642	-0.00482263	0.915972	361.961
278.5000	17.6469	-0.00470073	0.926158	363.157
278.0000	16.7573	-0.00457094	0.937076	364.445
277.5000	16.0919	-0.00447364	0.9474	365.668
277.0000	16.058	-0.00436213	0.958558	366.993
276.5000	15.5873	-0.00427173	0.970097	368.372
276.0000	15.1824	-0.00421109	0.981085	369.651
275.5000	14.7856	-0.00408506	0.993454	371.116
275.0000	14.5879	-0.00399021	1.00622	372.638
274.5000	14.3451	-0.00391538	1.01942	374.221
274.0000	13.6895	-0.00386512	1.0337	375.953
273.5000	13.0447	-0.00381771	1.04726	377.59
273.0000	12.806	-0.00375127	1.06208	379.375
272.5000	12.5726	-0.00369583	1.07746	381.239
272.0000	12.8567	-0.00368014	1.09332	383.185
271.5000	12.476	-0.00366777	1.11043	385.315
271.0000	11.611	-0.00371518	1.12753	387.429
270.5000	11.4897	-0.00370501	1.14514	389.621
270.0000	11.4573	-0.00376111	1.16322	391.907
269.5000	11.8823	-0.00377049	1.18194	394.288
269.0000	12.0059	-0.0037962	1.20051	396.655
268.5000	11.9073	-0.00381773	1.22071	399.251
268.0000	12.4154	-0.00387984	1.24149	401.935
267.5000	11.4308	-0.0039248	1.26259	404.717
267.0000	11.2246	-0.00393584	1.28542	407.732
266.5000	10.6252	-0.004003	1.30864	410.838
266.0000	11.2667	-0.00399897	1.33002	413.711
265.5000	11.7305	-0.00408652	1.35281	416.781
265.0000	12.4194	-0.0041837	1.377	420.08
264.5000	12.9869	-0.00431259	1.40017	423.284
264.0000	13.7484	-0.00443631	1.42377	426.552
263.5000	14.0977	-0.00458034	1.44874	430.06
263.0000	16.046	-0.00468972	1.4716	433.296
262.5000	17.3968	-0.00492967	1.4972	436.952
262.0000	18.3617	-0.0051633	1.52208	440.54
261.5000	19.4302	-0.00537578	1.54757	444.218
261.0000	20.7798	-0.00554298	1.57239	447.823
260.5000	23.4174	-0.00579383	1.59914	451.729
260.0000	25.8831	-0.00603721	1.62657	455.788
259.5000	28.8221	-0.00628173	1.65517	460.012
259.0000	32.4207	-0.00657533	1.68451	464.373
258.5000	36.0255	-0.00695076	1.71502	468.924
258.0000	38.3105	-0.0072861	1.7468	473.68
257.5000	41.4984	-0.0076647	1.778	478.389
257.0000	44.1271	-0.00797965	1.81237	483.591
256.5000	47.4591	-0.00830299	1.84606	488.731
256.0000	50.1861	-0.00869845	1.88292	494.386
255.5000	53.2062	-0.00899949	1.92117	500.293
255.0000	56.8864	-0.00951268	1.96084	506.456
254.5000	60.1819	-0.00982496	1.99983	512.563
254.0000	63.3221	-0.0101566	2.03996	518.895
253.5000	67.0147	-0.0104986	2.08575	526.155
253.0000	70.3731	-0.0109707	2.12817	532.968
252.5000	74.7722	-0.0116626	2.19288	543.498
252.0000	78.7541	-0.0120386	2.24781	552.574
251.5000	79.4004	-0.012489	2.29706	560.799
251.0000	80.8214	-0.0128525	2.34781	569.363
250.5000	84.1731	-0.013114	2.39996	578.265
250.0000	86.2677	-0.0133787	2.45093	587.068

##### Extended Information
[Comments]
Sample name	5% S-JS 1
Comment
User
Division
Company	Labo systeme complexes hors equilibre

[Detailed Information]
Creation date	9/22/2025 4:22 PM

Data array type	Linear data array * 4
Horizontal axis	Wavelength [nm]
Vertical axis(1)	CD [mdeg]
Vertical axis(2)	LD [dOD]
Vertical axis(3)	Abs
Vertical axis(4)	HT [V]
Start	700 nm
End	250 nm
Data interval	0.5 nm
Data points	901     

[Measurement Information]
Instrument name	CD Jasco
Model name	J-1500
Serial No.	A005261638

Detector	PM-539
Detector S/N	A0052PM539
  Lock-in amp.	X mode
  HT volt	Auto

Detector	EXPML-535
Detector S/N	A0001
  Lock-in amp.	X mode
  HT volt	Auto

Accessory	PTC-517
Accessory S/N	A001361646
  Temperature	19.99 C
  Control sonsor	Holder
  Monitor sensor	Holder
  Start Mode	Keep target temperature +/-0.10 deg C while 5 seconds

Measurement date	9/22/2025 4:22 PM

Overload detect	1
Photometric mode	CD, LD, Abs, HT
Measure range	700 - 250 nm
Data pitch	0.5 nm
CD scale	200 mdeg/1.0 dOD
FL scale	200 mdeg/1.0 dOD
D.I.T.	1 sec
Bandwidth	1.00 nm
Start mode	Immediately
Scanning speed	500 nm/min
Baseline correction	Baseline
Shutter control	Auto

Concentration	50 mmol/L
Solvent	water

