TITLE	50% R-JS after DT
DATA TYPE	
ORIGIN	JASCO
OWNER	
DATE	25/10/16
TIME	14:34:49
SPECTROMETER/DATA SYSTEM	
LOCALE	1033
RESOLUTION	
DELTAX	-0.5
XUNITS	NANOMETERS
YUNITS	CD [mdeg]
Y2UNITS	HT [V]
Y3UNITS	ABSORBANCE
Y4UNITS	LD [dOD]
FIRSTX	  700.0000
LASTX	  300.0000
NPOINTS	     801
FIRSTY	     0.65743
MAXY	    42.71114
MINY	    -5.47666
XYDATA
700.0000	0.657429	309.109	-0.031056	-0.000239896
699.5000	0.643209	308.601	-0.0311239	-0.000232273
699.0000	0.618734	308.011	-0.0313342	-0.000225003
698.5000	0.596251	307.368	-0.0302439	-0.000204396
698.0000	0.560394	306.701	-0.0289566	-0.000194716
697.5000	0.525483	306.048	-0.0275516	-0.000178716
697.0000	0.493788	305.408	-0.0263299	-0.00016283
696.5000	0.460561	304.834	-0.0243446	-0.000134282
696.0000	0.423887	304.301	-0.022722	-0.000162188
695.5000	0.385688	303.871	-0.0223213	-0.000162734
695.0000	0.336766	303.512	-0.0205436	-0.000159938
694.5000	0.299282	303.212	-0.0196517	-0.000146612
694.0000	0.238843	302.948	-0.0184947	-0.000153058
693.5000	0.172762	302.712	-0.016961	-0.000141392
693.0000	0.0853828	302.529	-0.0158233	-0.000146585
692.5000	-0.00294697	302.349	-0.01541	-0.000132255
692.0000	-0.0766833	302.231	-0.0139094	-0.000128257
691.5000	-0.153747	302.171	-0.0122978	-0.000131858
691.0000	-0.215381	302.205	-0.010507	-0.000123538
690.5000	-0.265298	302.337	-0.00974396	-0.000128832
690.0000	-0.295089	302.576	-0.00918481	-0.000146567
689.5000	-0.306804	302.891	-0.0103019	-0.000179203
689.0000	-0.31905	303.237	-0.011376	-0.000175324
688.5000	-0.314053	303.586	-0.0127701	-0.000203399
688.0000	-0.30004	303.913	-0.0136217	-0.000186172
687.5000	-0.306553	304.212	-0.0133231	-0.00017186
687.0000	-0.320567	304.482	-0.0158474	-0.00017497
686.5000	-0.336374	304.723	-0.0174635	-0.000189273
686.0000	-0.344941	304.954	-0.0182124	-0.000196363
685.5000	-0.341443	305.186	-0.0182593	-0.00020497
685.0000	-0.334893	305.425	-0.0182479	-0.000186365
684.5000	-0.291208	305.685	-0.0181741	-0.00021006
684.0000	-0.264054	305.957	-0.0185336	-0.000199608
683.5000	-0.208348	306.241	-0.0188015	-0.000229646
683.0000	-0.14055	306.503	-0.0201296	-0.00024541
682.5000	-0.0803714	306.697	-0.0216306	-0.000235979
682.0000	-0.0439608	306.825	-0.0225953	-0.000246891
681.5000	-0.0212247	306.878	-0.0225461	-0.000219479
681.0000	0.000890397	306.88	-0.021747	-0.000206722
680.5000	0.0123298	306.847	-0.021407	-0.000220268
680.0000	0.00576156	306.809	-0.0204321	-0.000216259
679.5000	0.0143492	306.754	-0.0197588	-0.000228796
679.0000	0.0232495	306.718	-0.0187066	-0.000225093
678.5000	0.0209542	306.676	-0.0177476	-0.000239478
678.0000	0.0417764	306.629	-0.0165047	-0.000224307
677.5000	0.0773918	306.607	-0.016081	-0.000215013
677.0000	0.0974518	306.588	-0.0158368	-0.000217544
676.5000	0.12029	306.596	-0.0153386	-0.000223155
676.0000	0.148674	306.596	-0.0150031	-0.000236072
675.5000	0.171952	306.599	-0.0164751	-0.000226598
675.0000	0.165787	306.617	-0.0158839	-0.000213491
674.5000	0.171555	306.653	-0.0151457	-0.00020186
674.0000	0.185036	306.702	-0.0142536	-0.000219297
673.5000	0.185426	306.748	-0.0144015	-0.000243831
673.0000	0.170308	306.793	-0.0144928	-0.00024536
672.5000	0.171589	306.853	-0.0145674	-0.000239918
672.0000	0.17247	306.918	-0.0141873	-0.000231245
671.5000	0.148685	306.987	-0.013545	-0.000230561
671.0000	0.134085	307.072	-0.0136759	-0.000224969
670.5000	0.135887	307.141	-0.0138547	-0.000232591
670.0000	0.115278	307.225	-0.0149574	-0.000222302
669.5000	0.0929019	307.311	-0.016235	-0.000225796
669.0000	0.0828887	307.406	-0.0168071	-0.00023592
668.5000	0.071181	307.504	-0.0169094	-0.000231076
668.0000	0.0603569	307.618	-0.0171012	-0.000219012
667.5000	0.0615624	307.735	-0.016127	-0.000211715
667.0000	0.0475819	307.849	-0.0164137	-0.000211889
666.5000	0.0377388	307.949	-0.0169201	-0.000208173
666.0000	0.0279643	308.061	-0.0172197	-0.000198927
665.5000	0.0377435	308.155	-0.0181703	-0.000197156
665.0000	0.0660082	308.221	-0.0178028	-0.000196429
664.5000	0.0745499	308.274	-0.017684	-0.000205473
664.0000	0.0800621	308.309	-0.0180125	-0.000197375
663.5000	0.100901	308.34	-0.0192957	-0.000188435
663.0000	0.10476	308.359	-0.0201627	-0.000209127
662.5000	0.134051	308.374	-0.0206564	-0.000214413
662.0000	0.185285	308.365	-0.0195615	-0.000213149
661.5000	0.219871	308.336	-0.0178368	-0.000219783
661.0000	0.226277	308.281	-0.0173717	-0.000210259
660.5000	0.224278	308.203	-0.0170766	-0.000219888
660.0000	0.213904	308.105	-0.0169009	-0.000213929
659.5000	0.191375	307.989	-0.016558	-0.000227886
659.0000	0.166745	307.827	-0.0155135	-0.000244284
658.5000	0.131682	307.621	-0.0149252	-0.000247008
658.0000	0.112139	307.377	-0.0155877	-0.000241536
657.5000	0.100817	307.122	-0.0147853	-0.00026344
657.0000	0.0829803	306.894	-0.0142505	-0.000266547
656.5000	0.0487024	306.656	-0.0133583	-0.000245134
656.0000	0.0139388	306.453	-0.0125728	-0.000264492
655.5000	-0.0246096	306.261	-0.0112197	-0.000272905
655.0000	-0.0547374	306.093	-0.00916675	-0.000275969
654.5000	-0.0818354	305.94	-0.00677169	-0.000252626
654.0000	-0.106631	305.82	-0.00568487	-0.0002647
653.5000	-0.105026	305.737	-0.00516779	-0.000261799
653.0000	-0.111362	305.682	-0.00468991	-0.000239208
652.5000	-0.0979013	305.656	-0.00471812	-0.000247779
652.0000	-0.0812483	305.668	-0.0044778	-0.000269123
651.5000	-0.0273587	305.695	-0.00437238	-0.000268914
651.0000	0.031854	305.774	-0.00434632	-0.000263508
650.5000	0.0970864	305.9	-0.00474493	-0.000251857
650.0000	0.164654	306.048	-0.00463296	-0.0002556
649.5000	0.222805	306.227	-0.00412002	-0.000237486
649.0000	0.273079	306.397	-0.00469504	-0.000212865
648.5000	0.318737	306.584	-0.00507358	-0.0002123
648.0000	0.359345	306.762	-0.00462972	-0.000219961
647.5000	0.405704	306.914	-0.0049565	-0.000221161
647.0000	0.469102	307.047	-0.00500958	-0.000204798
646.5000	0.525244	307.159	-0.00520522	-0.000212896
646.0000	0.578644	307.231	-0.00549217	-0.000209795
645.5000	0.625403	307.278	-0.00570826	-0.0002114
645.0000	0.678296	307.292	-0.00566952	-0.000214926
644.5000	0.719178	307.286	-0.00546749	-0.000220601
644.0000	0.739984	307.258	-0.00566086	-0.000220913
643.5000	0.739138	307.21	-0.00511362	-0.000218985
643.0000	0.721228	307.144	-0.00501837	-0.000214722
642.5000	0.694576	307.066	-0.00420272	-0.000223785
642.0000	0.647995	306.984	-0.00274214	-0.000221194
641.5000	0.622485	306.886	-0.00188573	-0.000226898
641.0000	0.605271	306.792	-0.000859157	-0.000250391
640.5000	0.575418	306.688	-0.000453999	-0.000245341
640.0000	0.547198	306.58	-0.000182534	-0.000264907
639.5000	0.510372	306.473	0.000175688	-0.000286216
639.0000	0.471853	306.377	0.000994397	-0.000291759
638.5000	0.426732	306.278	0.00182548	-0.000276533
638.0000	0.368682	306.196	0.00255469	-0.000279853
637.5000	0.311556	306.1	0.00354978	-0.000285826
637.0000	0.253149	306.032	0.00454647	-0.000290942
636.5000	0.193492	305.97	0.00536706	-0.000300853
636.0000	0.136285	305.928	0.00628894	-0.000305467
635.5000	0.0799741	305.901	0.00740988	-0.00030732
635.0000	0.0439352	305.865	0.00834499	-0.000321085
634.5000	0.0146212	305.833	0.00900388	-0.000322635
634.0000	0.0197744	305.796	0.00906307	-0.000324303
633.5000	0.0113548	305.766	0.00866101	-0.00031381
633.0000	0.0059636	305.755	0.00936983	-0.000324946
632.5000	0.00549756	305.712	0.0095215	-0.000307369
632.0000	0.0149572	305.682	0.00918292	-0.000321852
631.5000	0.0310701	305.64	0.00901673	-0.000326061
631.0000	0.0628219	305.582	0.00939461	-0.000331231
630.5000	0.110695	305.521	0.00969239	-0.000355981
630.0000	0.168685	305.468	0.0101056	-0.000365058
629.5000	0.229181	305.409	0.011059	-0.000364384
629.0000	0.310804	305.356	0.011845	-0.000394274
628.5000	0.385447	305.297	0.0124719	-0.000388199
628.0000	0.467342	305.24	0.0128994	-0.000371675
627.5000	0.563966	305.188	0.0139634	-0.000351511
627.0000	0.663859	305.146	0.0143974	-0.00036408
626.5000	0.765789	305.132	0.014719	-0.00036845
626.0000	0.869076	305.125	0.0157277	-0.000370827
625.5000	0.946821	305.133	0.0172376	-0.000377338
625.0000	1.03618	305.154	0.0188675	-0.000414602
624.5000	1.11852	305.194	0.0192471	-0.000435756
624.0000	1.21016	305.257	0.0206261	-0.000441817
623.5000	1.30199	305.328	0.0229145	-0.000458177
623.0000	1.39419	305.413	0.0243331	-0.000425798
622.5000	1.4596	305.52	0.0251605	-0.000427059
622.0000	1.53011	305.623	0.025015	-0.000437514
621.5000	1.6021	305.749	0.0251339	-0.0004212
621.0000	1.66415	305.898	0.0253744	-0.000415129
620.5000	1.74779	306.047	0.0260725	-0.000403269
620.0000	1.8282	306.218	0.0268938	-0.000397225
619.5000	1.89247	306.419	0.0282324	-0.000420013
619.0000	1.95763	306.638	0.0290483	-0.000439311
618.5000	2.00736	306.861	0.0301581	-0.00044055
618.0000	2.0378	307.07	0.0308376	-0.000450495
617.5000	2.0658	307.28	0.0313474	-0.000460801
617.0000	2.08835	307.491	0.0318927	-0.000447157
616.5000	2.11627	307.688	0.0332438	-0.000452776
616.0000	2.15152	307.873	0.0342205	-0.000419714
615.5000	2.17827	308.069	0.035284	-0.000440393
615.0000	2.19921	308.256	0.035543	-0.000434556
614.5000	2.23929	308.446	0.0361735	-0.000453028
614.0000	2.27725	308.625	0.0373192	-0.000474286
613.5000	2.32363	308.794	0.0390374	-0.000488912
613.0000	2.37307	308.971	0.0405199	-0.000498391
612.5000	2.39693	309.145	0.0416273	-0.000505376
612.0000	2.41088	309.318	0.0420609	-0.000513569
611.5000	2.4349	309.472	0.0426165	-0.000540871
611.0000	2.44543	309.621	0.043802	-0.00056605
610.5000	2.47285	309.77	0.0446325	-0.000569863
610.0000	2.50712	309.907	0.0462321	-0.000572946
609.5000	2.57029	310.052	0.0478244	-0.000582253
609.0000	2.64612	310.183	0.0487383	-0.000605007
608.5000	2.73836	310.317	0.0499996	-0.000611386
608.0000	2.82038	310.439	0.0512868	-0.000627812
607.5000	2.92541	310.56	0.0531205	-0.000680132
607.0000	3.02239	310.685	0.055167	-0.000673935
606.5000	3.12509	310.822	0.0572789	-0.000693652
606.0000	3.23086	310.956	0.0592287	-0.000689422
605.5000	3.33731	311.099	0.0608952	-0.000709946
605.0000	3.43459	311.232	0.062449	-0.000714682
604.5000	3.56522	311.35	0.0646933	-0.000727165
604.0000	3.70539	311.476	0.066786	-0.000728684
603.5000	3.84893	311.589	0.0673321	-0.000751374
603.0000	4.01544	311.72	0.068895	-0.000734868
602.5000	4.20376	311.851	0.0716302	-0.000729113
602.0000	4.39379	311.971	0.0736454	-0.000760267
601.5000	4.60155	312.107	0.0757006	-0.000764323
601.0000	4.78444	312.249	0.0780207	-0.000772243
600.5000	4.99054	312.386	0.0811663	-0.000764813
600.0000	5.20637	312.51	0.0842762	-0.000782747
599.5000	5.42853	312.648	0.0870935	-0.000793922
599.0000	5.65847	312.775	0.0900441	-0.000813247
598.5000	5.91956	312.891	0.0929461	-0.000836615
598.0000	6.20765	313.009	0.0959264	-0.000864783
597.5000	6.50878	313.14	0.0989958	-0.000886965
597.0000	6.83176	313.277	0.102863	-0.000915892
596.5000	7.1619	313.402	0.105586	-0.000946901
596.0000	7.50462	313.547	0.108753	-0.000970733
595.5000	7.87538	313.701	0.11335	-0.00100216
595.0000	8.2645	313.849	0.119047	-0.00103221
594.5000	8.65429	314.008	0.12251	-0.00106889
594.0000	9.07474	314.196	0.126468	-0.00110337
593.5000	9.51875	314.387	0.131601	-0.00113506
593.0000	9.98277	314.598	0.136602	-0.00116398
592.5000	10.4518	314.848	0.141056	-0.00122144
592.0000	10.9322	315.127	0.145072	-0.00124048
591.5000	11.447	315.378	0.149157	-0.0012734
591.0000	11.9765	315.667	0.153805	-0.00129658
590.5000	12.5089	316.004	0.158645	-0.00130705
590.0000	13.049	316.379	0.163685	-0.00133079
589.5000	13.6054	316.765	0.169247	-0.00136618
589.0000	14.1537	317.164	0.175037	-0.00140115
588.5000	14.6986	317.598	0.180752	-0.00142302
588.0000	15.2685	318.081	0.186816	-0.00143983
587.5000	15.8584	318.577	0.193149	-0.00148102
587.0000	16.4685	319.136	0.19938	-0.00150584
586.5000	17.1109	319.672	0.205563	-0.0015381
586.0000	17.7527	320.228	0.213284	-0.00159211
585.5000	18.3899	320.802	0.219662	-0.00163977
585.0000	19.0396	321.397	0.226321	-0.001705
584.5000	19.6942	321.984	0.232597	-0.00174216
584.0000	20.3435	322.626	0.239757	-0.00177675
583.5000	20.9962	323.288	0.247197	-0.0018263
583.0000	21.6618	324.012	0.255357	-0.00188593
582.5000	22.3115	324.747	0.263574	-0.00194613
582.0000	22.9605	325.461	0.271896	-0.00197167
581.5000	23.5866	326.231	0.280414	-0.00201189
581.0000	24.226	327.017	0.288806	-0.00206049
580.5000	24.8687	327.82	0.297237	-0.00212756
580.0000	25.4758	328.597	0.305054	-0.00218084
579.5000	26.0771	329.396	0.313758	-0.0022197
579.0000	26.6382	330.198	0.322367	-0.00224628
578.5000	27.1328	330.991	0.330895	-0.00229894
578.0000	27.5849	331.819	0.339594	-0.00232318
577.5000	27.9971	332.692	0.348616	-0.00234322
577.0000	28.3611	333.516	0.357648	-0.00237383
576.5000	28.6776	334.396	0.367916	-0.00239225
576.0000	28.958	335.226	0.377458	-0.00243333
575.5000	29.1879	336.061	0.387557	-0.00246863
575.0000	29.3647	336.845	0.396259	-0.00245858
574.5000	29.4879	337.678	0.405044	-0.00247157
574.0000	29.5594	338.471	0.413719	-0.00251175
573.5000	29.5914	339.241	0.421986	-0.00254236
573.0000	29.5878	340.029	0.430547	-0.0025617
572.5000	29.5053	340.746	0.438343	-0.00255719
572.0000	29.395	341.551	0.447476	-0.00257373
571.5000	29.2146	342.307	0.456768	-0.00261999
571.0000	29.0071	343.06	0.464922	-0.00266322
570.5000	28.7931	343.822	0.473368	-0.00268322
570.0000	28.5479	344.518	0.48111	-0.0027049
569.5000	28.2833	345.208	0.488901	-0.00268516
569.0000	28.0239	345.858	0.49661	-0.00269601
568.5000	27.7364	346.465	0.503404	-0.00267033
568.0000	27.4832	347.058	0.509649	-0.00268415
567.5000	27.1868	347.635	0.516643	-0.00269463
567.0000	26.8993	348.181	0.52297	-0.00270784
566.5000	26.5973	348.649	0.529374	-0.00270606
566.0000	26.321	349.094	0.535011	-0.00269139
565.5000	26.0581	349.542	0.540746	-0.00269313
565.0000	25.8081	349.943	0.546125	-0.00270375
564.5000	25.5816	350.329	0.551554	-0.00269293
564.0000	25.3839	350.637	0.555952	-0.00269371
563.5000	25.2376	350.904	0.559528	-0.00265096
563.0000	25.1456	351.184	0.563909	-0.00262208
562.5000	25.051	351.406	0.568509	-0.00261789
562.0000	24.9896	351.616	0.572395	-0.00261127
561.5000	24.9625	351.815	0.575805	-0.00259177
561.0000	24.9539	351.988	0.57881	-0.00259746
560.5000	24.9765	352.146	0.581712	-0.00256792
560.0000	25.0461	352.308	0.584926	-0.00257924
559.5000	25.1478	352.417	0.587511	-0.00257107
559.0000	25.3036	352.498	0.589459	-0.00256698
558.5000	25.4712	352.557	0.591159	-0.00255714
558.0000	25.6896	352.616	0.593271	-0.00258852
557.5000	25.9288	352.655	0.595059	-0.00259567
557.0000	26.1999	352.68	0.59648	-0.00257972
556.5000	26.4871	352.703	0.598128	-0.00258321
556.0000	26.7832	352.715	0.599912	-0.00258616
555.5000	27.1004	352.749	0.602253	-0.00261661
555.0000	27.4393	352.763	0.604034	-0.002622
554.5000	27.7934	352.783	0.605724	-0.00260815
554.0000	28.1595	352.805	0.607278	-0.00262147
553.5000	28.5413	352.81	0.608915	-0.00260938
553.0000	28.9819	352.834	0.609885	-0.0026067
552.5000	29.4591	352.892	0.611901	-0.00262918
552.0000	29.9299	352.933	0.613358	-0.00265513
551.5000	30.4264	352.978	0.615236	-0.0026469
551.0000	30.948	353.084	0.617901	-0.00268092
550.5000	31.483	353.179	0.620549	-0.00268239
550.0000	32.0387	353.31	0.623429	-0.00269226
549.5000	32.6129	353.435	0.626071	-0.00270776
549.0000	33.1964	353.585	0.629266	-0.00272254
548.5000	33.8061	353.788	0.632542	-0.00271645
548.0000	34.4309	354.006	0.636061	-0.00276604
547.5000	35.0739	354.258	0.639679	-0.00276916
547.0000	35.7166	354.534	0.643723	-0.00277943
546.5000	36.3884	354.852	0.647591	-0.0028284
546.0000	37.0658	355.213	0.651883	-0.00287347
545.5000	37.7338	355.582	0.656574	-0.0028846
545.0000	38.3626	355.993	0.661178	-0.00292495
544.5000	38.9598	356.418	0.666906	-0.00294434
544.0000	39.5479	356.871	0.672824	-0.00299891
543.5000	40.0978	357.352	0.678474	-0.00301243
543.0000	40.6144	357.846	0.683848	-0.00306599
542.5000	41.0836	358.355	0.689128	-0.00313939
542.0000	41.4972	358.881	0.69484	-0.00317862
541.5000	41.8376	359.462	0.701234	-0.00320952
541.0000	42.1125	360.042	0.707836	-0.00324557
540.5000	42.3398	360.658	0.714738	-0.00331064
540.0000	42.5222	361.276	0.721998	-0.00337067
539.5000	42.6534	361.879	0.728893	-0.0034185
539.0000	42.7111	362.523	0.735556	-0.00347943
538.5000	42.7009	363.174	0.742446	-0.00351844
538.0000	42.6266	363.776	0.749249	-0.00357309
537.5000	42.5025	364.395	0.755625	-0.00363228
537.0000	42.3134	365.009	0.762833	-0.00367809
536.5000	42.0808	365.6	0.769789	-0.00374424
536.0000	41.7971	366.213	0.776466	-0.0037781
535.5000	41.4947	366.795	0.782957	-0.00381916
535.0000	41.1587	367.402	0.79011	-0.00385364
534.5000	40.76	367.935	0.796716	-0.00386941
534.0000	40.3305	368.483	0.802916	-0.00389471
533.5000	39.8623	369.018	0.80887	-0.0039055
533.0000	39.4094	369.49	0.814303	-0.00391977
532.5000	38.9492	369.968	0.819613	-0.00396206
532.0000	38.4876	370.447	0.824786	-0.00398631
531.5000	38.0045	370.916	0.829449	-0.00398247
531.0000	37.4952	371.376	0.834644	-0.00396763
530.5000	36.9612	371.786	0.839686	-0.00398281
530.0000	36.3977	372.197	0.845052	-0.00401744
529.5000	35.8358	372.59	0.850262	-0.00405985
529.0000	35.2822	372.931	0.854863	-0.00406309
528.5000	34.7124	373.256	0.859029	-0.00409883
528.0000	34.1177	373.553	0.862657	-0.00407348
527.5000	33.5209	373.843	0.867177	-0.00408117
527.0000	32.8954	374.13	0.871222	-0.00408185
526.5000	32.2543	374.401	0.874717	-0.00410009
526.0000	31.6235	374.681	0.878941	-0.00408517
525.5000	30.9845	374.944	0.882981	-0.00412547
525.0000	30.3718	375.204	0.88681	-0.00416468
524.5000	29.7434	375.425	0.889989	-0.00415277
524.0000	29.1131	375.621	0.89302	-0.00417011
523.5000	28.4679	375.837	0.896574	-0.0042127
523.0000	27.7992	376.036	0.900335	-0.00423197
522.5000	27.1397	376.249	0.904141	-0.00424307
522.0000	26.509	376.479	0.907522	-0.00423109
521.5000	25.9121	376.711	0.910805	-0.00424291
521.0000	25.3152	376.933	0.914133	-0.00421845
520.5000	24.7261	377.164	0.917437	-0.00424139
520.0000	24.1723	377.363	0.920571	-0.00425571
519.5000	23.6229	377.582	0.924004	-0.00425463
519.0000	23.0912	377.818	0.92719	-0.00425608
518.5000	22.6274	378.067	0.930828	-0.00426738
518.0000	22.1755	378.373	0.934712	-0.00429291
517.5000	21.736	378.693	0.938457	-0.00433546
517.0000	21.3152	379.006	0.942432	-0.00432505
516.5000	20.9029	379.33	0.946501	-0.00435948
516.0000	20.4958	379.687	0.951195	-0.00440595
515.5000	20.074	380.047	0.955237	-0.00437677
515.0000	19.6845	380.371	0.958748	-0.00438247
514.5000	19.3059	380.728	0.962558	-0.00443354
514.0000	18.9128	381.037	0.966352	-0.00445293
513.5000	18.5179	381.366	0.97065	-0.00446748
513.0000	18.0603	381.729	0.975249	-0.0044819
512.5000	17.5841	382.136	0.979869	-0.00449363
512.0000	17.0665	382.499	0.984131	-0.00450264
511.5000	16.5354	382.848	0.988379	-0.0045238
511.0000	15.9821	383.156	0.992107	-0.00456005
510.5000	15.3831	383.426	0.995516	-0.00459563
510.0000	14.7341	383.659	0.999019	-0.00463431
509.5000	14.0853	383.844	1.00217	-0.00466204
509.0000	13.3651	384.011	1.00487	-0.00466074
508.5000	12.6162	384.156	1.00791	-0.00467067
508.0000	11.8666	384.288	1.01019	-0.00466625
507.5000	11.0858	384.39	1.01231	-0.00469682
507.0000	10.2658	384.446	1.01387	-0.00469379
506.5000	9.43966	384.466	1.0156	-0.00471131
506.0000	8.60608	384.444	1.01662	-0.00475257
505.5000	7.72961	384.392	1.01711	-0.00476333
505.0000	6.85195	384.284	1.01676	-0.00479214
504.5000	6.00257	384.107	1.01616	-0.00481383
504.0000	5.155	383.865	1.0154	-0.0048256
503.5000	4.36455	383.554	1.01376	-0.00486348
503.0000	3.58998	383.174	1.01126	-0.00490283
502.5000	2.83382	382.777	1.00891	-0.00488946
502.0000	2.09823	382.316	1.0063	-0.00487953
501.5000	1.39661	381.809	1.00331	-0.0048237
501.0000	0.722005	381.203	1.00005	-0.00483504
500.5000	0.103342	380.487	0.9956	-0.00484263
500.0000	-0.517122	379.615	0.990619	-0.00484684
499.5000	-1.10869	378.569	0.985555	-0.00481878
499.0000	-1.65153	377.302	0.979945	-0.00479198
498.5000	-2.16139	375.935	0.974421	-0.00480108
498.0000	-2.61948	374.504	0.968751	-0.00477055
497.5000	-3.02738	373.045	0.962718	-0.00474125
497.0000	-3.41836	371.825	0.95694	-0.00468415
496.5000	-3.79407	370.742	0.951083	-0.00461673
496.0000	-4.12331	369.785	0.94456	-0.00458296
495.5000	-4.42109	368.812	0.937621	-0.00455442
495.0000	-4.7092	367.874	0.931103	-0.0045207
494.5000	-4.92965	366.951	0.924594	-0.00447583
494.0000	-5.09675	366.075	0.918392	-0.00445299
493.5000	-5.2435	365.172	0.910878	-0.00442518
493.0000	-5.35174	364.346	0.904208	-0.00437953
492.5000	-5.42056	363.507	0.897191	-0.00436755
492.0000	-5.46373	362.639	0.889541	-0.00435487
491.5000	-5.47666	361.883	0.883008	-0.00431903
491.0000	-5.42875	361.169	0.875987	-0.00429022
490.5000	-5.34059	360.525	0.868939	-0.00426223
490.0000	-5.2154	359.907	0.861511	-0.00422766
489.5000	-5.06424	359.228	0.853999	-0.00420245
489.0000	-4.90539	358.264	0.846438	-0.00416696
488.5000	-4.71813	357.134	0.839215	-0.00414125
488.0000	-4.52396	355.862	0.831945	-0.00410188
487.5000	-4.31165	354.514	0.824709	-0.00404731
487.0000	-4.05429	353.203	0.818244	-0.00401675
486.5000	-3.7779	351.897	0.812186	-0.00395507
486.0000	-3.52524	350.829	0.806483	-0.00392802
485.5000	-3.2942	349.92	0.800645	-0.00391935
485.0000	-3.0826	349.054	0.794523	-0.00385604
484.5000	-2.88543	348.26	0.788749	-0.00385861
484.0000	-2.68141	347.487	0.78279	-0.00381765
483.5000	-2.49162	346.804	0.776471	-0.00378071
483.0000	-2.31981	346.16	0.76973	-0.00374898
482.5000	-2.17094	345.616	0.763685	-0.00371684
482.0000	-2.03536	345.102	0.757841	-0.00365357
481.5000	-1.94827	344.597	0.752034	-0.00361034
481.0000	-1.87172	344.143	0.746434	-0.00356346
480.5000	-1.78412	343.667	0.740118	-0.00353567
480.0000	-1.73794	342.99	0.733395	-0.00351964
479.5000	-1.68113	341.984	0.726976	-0.00350661
479.0000	-1.62983	340.831	0.72099	-0.00346707
478.5000	-1.59172	339.968	0.715978	-0.00342859
478.0000	-1.53781	339.27	0.710165	-0.00339423
477.5000	-1.4892	338.596	0.703938	-0.00335107
477.0000	-1.43688	337.677	0.697187	-0.00332339
476.5000	-1.37901	336.366	0.689477	-0.00330339
476.0000	-1.29916	334.914	0.681925	-0.00325015
475.5000	-1.20881	333.316	0.674894	-0.00319267
475.0000	-1.12153	331.563	0.667827	-0.00314912
474.5000	-1.03418	329.699	0.6608	-0.00311894
474.0000	-0.9335	327.663	0.65399	-0.00308359
473.5000	-0.82518	325.485	0.647762	-0.00305007
473.0000	-0.69756	323.498	0.642077	-0.00300092
472.5000	-0.551565	321.903	0.636414	-0.00295751
472.0000	-0.387251	320.807	0.630302	-0.00291534
471.5000	-0.218317	320.133	0.623696	-0.00284986
471.0000	-0.0669118	319.849	0.61777	-0.00281625
470.5000	0.10366	319.519	0.610321	-0.00280075
470.0000	0.271404	318.884	0.602881	-0.00276853
469.5000	0.429226	317.868	0.595132	-0.00272941
469.0000	0.610878	316.637	0.58815	-0.00265868
468.5000	0.785777	315.485	0.581389	-0.00260389
468.0000	0.970523	314.579	0.574764	-0.00255073
467.5000	1.13126	313.99	0.567859	-0.0025269
467.0000	1.30038	313.64	0.561539	-0.00247977
466.5000	1.46972	313.526	0.555085	-0.00244452
466.0000	1.62581	313.636	0.548351	-0.00239528
465.5000	1.7842	313.946	0.540615	-0.00236418
465.0000	1.91819	314.248	0.531162	-0.00230936
464.5000	2.03591	314.113	0.520578	-0.00227217
464.0000	2.14969	313.563	0.511436	-0.00224541
463.5000	2.24979	312.863	0.503903	-0.00220055
463.0000	2.34169	312.161	0.49656	-0.00215121
462.5000	2.42137	311.527	0.489713	-0.00211146
462.0000	2.48344	311.01	0.4824	-0.00206858
461.5000	2.55233	310.681	0.475229	-0.00202609
461.0000	2.62375	310.493	0.467858	-0.0019925
460.5000	2.66763	310.353	0.4596	-0.00196866
460.0000	2.69811	310.173	0.45156	-0.00193397
459.5000	2.69423	309.886	0.444102	-0.00190096
459.0000	2.68308	309.409	0.436607	-0.00186409
458.5000	2.65904	308.735	0.429376	-0.00181819
458.0000	2.6544	307.9	0.422484	-0.00177963
457.5000	2.64894	307.108	0.415682	-0.00173149
457.0000	2.63021	306.383	0.408578	-0.00169853
456.5000	2.60832	305.578	0.401803	-0.00165417
456.0000	2.58087	304.593	0.395215	-0.00164563
455.5000	2.57406	303.551	0.388393	-0.00158916
455.0000	2.57315	302.821	0.381682	-0.00155972
454.5000	2.56592	302.331	0.375003	-0.00153996
454.0000	2.55906	301.834	0.367801	-0.00148884
453.5000	2.5451	301.323	0.360746	-0.00146577
453.0000	2.51904	300.815	0.354694	-0.00143548
452.5000	2.49961	300.303	0.348584	-0.00141194
452.0000	2.46513	299.767	0.342129	-0.0013846
451.5000	2.41134	299.186	0.33517	-0.00135615
451.0000	2.37365	298.639	0.328665	-0.00132465
450.5000	2.33879	298.156	0.32253	-0.00130205
450.0000	2.31335	297.867	0.316859	-0.00125994
449.5000	2.27223	297.646	0.311109	-0.00123429
449.0000	2.22429	297.315	0.305356	-0.00121043
448.5000	2.16671	296.929	0.299976	-0.00118457
448.0000	2.10557	296.767	0.29498	-0.00117691
447.5000	2.0447	296.82	0.289916	-0.00115031
447.0000	1.98321	296.78	0.283904	-0.001133
446.5000	1.90807	296.448	0.27821	-0.00112165
446.0000	1.82849	295.916	0.272626	-0.0010885
445.5000	1.74707	295.339	0.267662	-0.00104889
445.0000	1.65218	294.699	0.262448	-0.00102598
444.5000	1.55145	294.019	0.257293	-0.00100205
444.0000	1.45096	293.356	0.252643	-0.000983795
443.5000	1.36929	292.699	0.248165	-0.000960768
443.0000	1.30863	292.174	0.244187	-0.000935794
442.5000	1.25506	291.676	0.239944	-0.000900521
442.0000	1.21705	291.251	0.235943	-0.00088315
441.5000	1.17855	290.786	0.231688	-0.000858098
441.0000	1.15249	290.358	0.2277	-0.000840314
440.5000	1.12721	289.942	0.223654	-0.000828809
440.0000	1.11685	289.511	0.219249	-0.00081333
439.5000	1.11742	289.083	0.214548	-0.000779466
439.0000	1.11505	288.62	0.209243	-0.000760836
438.5000	1.11348	288.161	0.204739	-0.000732022
438.0000	1.11734	287.692	0.20011	-0.000700534
437.5000	1.11971	287.257	0.195587	-0.000693753
437.0000	1.14215	286.833	0.19108	-0.00068669
436.5000	1.1752	286.51	0.187535	-0.000658939
436.0000	1.20689	286.242	0.184057	-0.00064298
435.5000	1.24808	285.966	0.180133	-0.000616674
435.0000	1.29636	285.626	0.176071	-0.000601639
434.5000	1.34635	285.279	0.172372	-0.000587481
434.0000	1.39069	284.908	0.168565	-0.000567038
433.5000	1.41658	284.556	0.165021	-0.00056788
433.0000	1.4219	284.182	0.161253	-0.000545196
432.5000	1.41448	283.809	0.157861	-0.000524632
432.0000	1.40875	283.429	0.154718	-0.000504457
431.5000	1.39423	283.042	0.151697	-0.000488626
431.0000	1.36857	282.676	0.148661	-0.000464348
430.5000	1.34191	282.307	0.145523	-0.000450086
430.0000	1.31519	281.958	0.142551	-0.000433685
429.5000	1.28643	281.598	0.139655	-0.000420313
429.0000	1.26614	281.23	0.136827	-0.000408718
428.5000	1.24073	280.876	0.133868	-0.000388933
428.0000	1.22291	280.499	0.130616	-0.000384006
427.5000	1.20437	280.162	0.127751	-0.000363595
427.0000	1.17718	279.823	0.124634	-0.000338384
426.5000	1.14178	279.477	0.121652	-0.000328955
426.0000	1.08658	279.075	0.118699	-0.000300511
425.5000	1.03518	278.64	0.115778	-0.000298074
425.0000	0.985609	278.186	0.113148	-0.00029242
424.5000	0.949903	277.761	0.110451	-0.000284856
424.0000	0.929653	277.427	0.108057	-0.000291244
423.5000	0.916674	277.146	0.105647	-0.000279643
423.0000	0.919727	276.878	0.103466	-0.000266767
422.5000	0.913601	276.624	0.101435	-0.000265148
422.0000	0.905219	276.377	0.0991502	-0.000256521
421.5000	0.91073	276.133	0.0968368	-0.000268738
421.0000	0.913286	275.91	0.0946713	-0.000243575
420.5000	0.90991	275.692	0.0924099	-0.000242656
420.0000	0.905439	275.464	0.0902828	-0.000217882
419.5000	0.898741	275.228	0.0884045	-0.000198792
419.0000	0.890483	275.006	0.0868392	-0.000192049
418.5000	0.886453	274.808	0.0855363	-0.000184753
418.0000	0.884093	274.642	0.084411	-0.000185584
417.5000	0.880376	274.497	0.0832268	-0.000175126
417.0000	0.889735	274.403	0.081802	-0.000162183
416.5000	0.926369	274.341	0.0804066	-0.000151661
416.0000	0.952142	274.232	0.0792185	-0.00013313
415.5000	0.966803	274.063	0.0777187	-0.000121212
415.0000	0.960309	273.891	0.0766257	-0.000109996
414.5000	0.932106	273.709	0.0752687	-0.000107344
414.0000	0.920781	273.533	0.0742442	-9.96145E-005
413.5000	0.902434	273.376	0.0734705	-9.31774E-005
413.0000	0.89913	273.245	0.0723656	-8.85996E-005
412.5000	0.898321	273.125	0.0714724	-7.70271E-005
412.0000	0.895793	273.015	0.0708174	-5.56373E-005
411.5000	0.890839	272.901	0.0698099	-6.11269E-005
411.0000	0.873499	272.818	0.0687386	-5.24523E-005
410.5000	0.848852	272.752	0.0679557	-4.48018E-005
410.0000	0.82289	272.708	0.0675516	-3.95976E-005
409.5000	0.804852	272.67	0.0668522	-4.07524E-005
409.0000	0.786169	272.649	0.0660801	-4.17984E-005
408.5000	0.751285	272.61	0.0651181	-3.49048E-005
408.0000	0.716375	272.564	0.0646182	-1.41996E-005
407.5000	0.669823	272.51	0.0638583	-1.60672E-005
407.0000	0.617172	272.455	0.0632975	-1.38563E-005
406.5000	0.57558	272.39	0.0626297	-5.88475E-006
406.0000	0.540988	272.313	0.0622064	1.35996E-007
405.5000	0.505467	272.203	0.0619044	1.80955E-005
405.0000	0.472402	272.066	0.0615232	2.01747E-005
404.5000	0.42823	271.914	0.061354	4.0139E-005
404.0000	0.375018	271.736	0.0611499	3.19812E-005
403.5000	0.328134	271.535	0.0609444	4.42028E-005
403.0000	0.277128	271.339	0.0611608	4.33487E-005
402.5000	0.229392	271.124	0.0612802	4.19381E-005
402.0000	0.188292	270.919	0.0611173	4.82273E-005
401.5000	0.156942	270.711	0.0610184	4.02863E-005
401.0000	0.132462	270.524	0.0614432	4.65944E-005
400.5000	0.101354	270.38	0.0620753	5.83965E-005
400.0000	0.0674205	270.27	0.0622875	4.42216E-005
399.5000	0.0264319	270.174	0.0626316	4.68534E-005
399.0000	0.00472234	270.107	0.0631105	6.20932E-005
398.5000	-0.013944	270.055	0.0635592	5.9296E-005
398.0000	-0.0214386	270.028	0.063754	5.64695E-005
397.5000	-0.0302721	270.025	0.0635355	8.12892E-005
397.0000	-0.0343994	270.058	0.0633312	8.39698E-005
396.5000	-0.0360093	270.127	0.0636483	9.46087E-005
396.0000	-0.0258741	270.218	0.0637391	7.62719E-005
395.5000	-0.0154251	270.335	0.0644769	7.6512E-005
395.0000	-0.000939444	270.486	0.0647332	7.34892E-005
394.5000	0.025705	270.653	0.064882	9.16815E-005
394.0000	0.0450548	270.849	0.0653101	0.000100027
393.5000	0.0590089	271.047	0.0656346	0.000108916
393.0000	0.0674075	271.242	0.0655966	0.000133566
392.5000	0.077298	271.424	0.0655625	0.000122136
392.0000	0.0901871	271.576	0.0656313	0.000121035
391.5000	0.102842	271.714	0.0663679	0.000131945
391.0000	0.115945	271.829	0.0664814	0.000137549
390.5000	0.131056	271.944	0.0665803	0.000141838
390.0000	0.150247	272.055	0.0668257	0.000145677
389.5000	0.161792	272.147	0.0673785	0.000141461
389.0000	0.179577	272.239	0.0680853	0.000124931
388.5000	0.189471	272.326	0.0691238	0.000118172
388.0000	0.202821	272.399	0.0699756	0.000123851
387.5000	0.214424	272.468	0.0707149	0.000132356
387.0000	0.220811	272.533	0.0712677	0.000141841
386.5000	0.22704	272.591	0.0721902	0.000147567
386.0000	0.229002	272.643	0.0730267	0.000146127
385.5000	0.243572	272.692	0.0738564	0.000140799
385.0000	0.255206	272.732	0.0746435	0.000145811
384.5000	0.26594	272.781	0.0755736	0.000133911
384.0000	0.285786	272.822	0.0763662	0.000152213
383.5000	0.309604	272.858	0.0772004	0.000157577
383.0000	0.340758	272.895	0.078145	0.000164986
382.5000	0.385912	272.946	0.0791893	0.000168966
382.0000	0.42981	272.991	0.0801068	0.00017398
381.5000	0.48428	273.049	0.0809046	0.000166442
381.0000	0.537853	273.105	0.0818988	0.000172415
380.5000	0.580298	273.159	0.0827859	0.000168166
380.0000	0.634307	273.22	0.0838121	0.000169815
379.5000	0.678687	273.286	0.0849712	0.000174667
379.0000	0.724599	273.344	0.0855788	0.000162575
378.5000	0.763631	273.414	0.0864531	0.000158386
378.0000	0.792974	273.473	0.0869989	0.000167867
377.5000	0.833084	273.526	0.0875493	0.000174489
377.0000	0.867372	273.56	0.0878544	0.000164819
376.5000	0.907614	273.596	0.088631	0.000161588
376.0000	0.930418	273.624	0.089277	0.000152445
375.5000	0.960324	273.657	0.0899125	0.000152462
375.0000	0.983365	273.677	0.0900238	0.000144445
374.5000	1.00387	273.69	0.0901564	0.000123096
374.0000	1.00327	273.699	0.0905995	0.000115364
373.5000	0.991093	273.711	0.0912286	0.000106728
373.0000	0.959519	273.718	0.0917975	0.000119715
372.5000	0.923359	273.724	0.0920351	0.000117347
372.0000	0.897668	273.736	0.0922338	0.000120218
371.5000	0.858853	273.747	0.0922684	0.000142342
371.0000	0.832645	273.761	0.092412	0.000142132
370.5000	0.806418	273.794	0.0928145	0.000145318
370.0000	0.785319	273.822	0.0930017	0.000134574
369.5000	0.766307	273.853	0.0933411	0.000115732
369.0000	0.745827	273.891	0.093788	0.000109756
368.5000	0.736257	273.944	0.094466	0.000115147
368.0000	0.718145	274.001	0.0948346	9.77373E-005
367.5000	0.686587	274.061	0.0953842	0.000101976
367.0000	0.659846	274.12	0.0959534	9.51371E-005
366.5000	0.633358	274.193	0.0965894	9.88674E-005
366.0000	0.605144	274.285	0.0971168	0.000110674
365.5000	0.58342	274.368	0.0978475	0.000112623
365.0000	0.570379	274.445	0.0985355	0.000109773
364.5000	0.571952	274.52	0.0992901	9.4709E-005
364.0000	0.573607	274.611	0.100125	9.65499E-005
363.5000	0.572759	274.699	0.100632	8.88819E-005
363.0000	0.586452	274.784	0.101031	6.60125E-005
362.5000	0.58044	274.878	0.101693	7.60628E-005
362.0000	0.581041	274.95	0.10197	8.56594E-005
361.5000	0.573225	275.041	0.102544	9.11955E-005
361.0000	0.551059	275.126	0.10304	8.68069E-005
360.5000	0.529855	275.216	0.103572	9.62193E-005
360.0000	0.504091	275.301	0.104249	9.47936E-005
359.5000	0.498528	275.386	0.10482	9.43337E-005
359.0000	0.495677	275.469	0.105454	9.00246E-005
358.5000	0.485978	275.545	0.106184	8.73534E-005
358.0000	0.495634	275.622	0.106979	7.64223E-005
357.5000	0.495356	275.704	0.107773	6.93369E-005
357.0000	0.507471	275.791	0.108527	5.71504E-005
356.5000	0.519525	275.876	0.108932	5.12814E-005
356.0000	0.529724	275.951	0.109273	6.69886E-005
355.5000	0.53318	276.019	0.109817	6.7138E-005
355.0000	0.547891	276.104	0.11064	6.9131E-005
354.5000	0.560223	276.177	0.111436	6.48767E-005
354.0000	0.582999	276.26	0.112121	6.35565E-005
353.5000	0.602802	276.337	0.112439	4.21933E-005
353.0000	0.6283	276.411	0.112508	2.49483E-005
352.5000	0.661184	276.503	0.11282	3.04118E-005
352.0000	0.695964	276.595	0.113124	3.26482E-005
351.5000	0.745371	276.68	0.113269	3.48609E-005
351.0000	0.7868	276.765	0.113821	3.52446E-005
350.5000	0.839735	276.846	0.114277	2.30381E-005
350.0000	0.872334	276.951	0.11491	1.91525E-005
349.5000	0.901905	277.045	0.115189	1.41168E-005
349.0000	0.934633	277.152	0.11549	8.30573E-007
348.5000	0.955011	277.246	0.115638	3.29658E-006
348.0000	0.990141	277.336	0.116164	4.52883E-006
347.5000	1.02176	277.43	0.116939	-2.7512E-005
347.0000	1.03854	277.521	0.117544	-3.28034E-005
346.5000	1.06452	277.615	0.117786	-5.13125E-005
346.0000	1.08697	277.713	0.117871	-5.5716E-005
345.5000	1.09436	277.812	0.118588	-7.14912E-005
345.0000	1.1153	277.929	0.11979	-6.95742E-005
344.5000	1.12608	278.029	0.121094	-6.95427E-005
344.0000	1.12678	278.12	0.12234	-9.25569E-005
343.5000	1.12411	278.215	0.123623	-0.000105178
343.0000	1.10988	278.318	0.125157	-0.000126071
342.5000	1.10058	278.431	0.126743	-0.000137479
342.0000	1.09137	278.542	0.128176	-0.000134146
341.5000	1.09347	278.639	0.129421	-0.000147408
341.0000	1.09592	278.727	0.130473	-0.000147273
340.5000	1.11238	278.808	0.131438	-0.000161723
340.0000	1.11879	278.912	0.132612	-0.000172648
339.5000	1.12249	279.014	0.133638	-0.00017456
339.0000	1.13677	279.12	0.134114	-0.000196623
338.5000	1.14351	279.236	0.134694	-0.000216873
338.0000	1.14394	279.347	0.13607	-0.000234206
337.5000	1.15168	279.462	0.137751	-0.000225466
337.0000	1.15511	279.57	0.138758	-0.000224938
336.5000	1.15726	279.688	0.139841	-0.000240794
336.0000	1.18306	279.814	0.140944	-0.000248343
335.5000	1.20812	279.938	0.1422	-0.000256423
335.0000	1.25425	280.055	0.143269	-0.000257794
334.5000	1.29958	280.184	0.144143	-0.000284084
334.0000	1.34474	280.305	0.144454	-0.00031691
333.5000	1.39337	280.448	0.145154	-0.000322326
333.0000	1.43763	280.588	0.146217	-0.000341888
332.5000	1.47133	280.73	0.147113	-0.000346192
332.0000	1.50025	280.878	0.148319	-0.000366336
331.5000	1.52894	281.038	0.149727	-0.000385937
331.0000	1.56597	281.202	0.151212	-0.000398615
330.5000	1.61441	281.35	0.153016	-0.000408686
330.0000	1.6802	281.499	0.154876	-0.000407125
329.5000	1.74323	281.659	0.156498	-0.000424425
329.0000	1.81093	281.829	0.15793	-0.000465958
328.5000	1.87385	281.978	0.159369	-0.000482448
328.0000	1.94273	282.125	0.161096	-0.000500366
327.5000	2.00759	282.256	0.162389	-0.00053943
327.0000	2.07036	282.385	0.163494	-0.00056795
326.5000	2.12181	282.546	0.164693	-0.000582706
326.0000	2.17222	282.72	0.165871	-0.000601152
325.5000	2.21456	282.895	0.167563	-0.000612756
325.0000	2.26286	283.066	0.169165	-0.00064973
324.5000	2.30886	283.245	0.170946	-0.000670475
324.0000	2.36373	283.441	0.17302	-0.000717086
323.5000	2.42739	283.631	0.175173	-0.000754958
323.0000	2.48458	283.813	0.177037	-0.000805914
322.5000	2.54383	284.004	0.179017	-0.000815244
322.0000	2.59078	284.196	0.180512	-0.000837578
321.5000	2.63431	284.39	0.181949	-0.000873108
321.0000	2.68076	284.592	0.183514	-0.000888759
320.5000	2.71547	284.801	0.185503	-0.000918144
320.0000	2.76198	284.994	0.187204	-0.00094944
319.5000	2.81233	285.19	0.188549	-0.000964169
319.0000	2.86717	285.422	0.190286	-0.000970154
318.5000	2.91664	285.659	0.191998	-0.00100229
318.0000	2.96541	285.867	0.194213	-0.00102708
317.5000	3.02304	286.055	0.196764	-0.00105329
317.0000	3.0715	286.246	0.198766	-0.00107515
316.5000	3.1165	286.444	0.200588	-0.00109696
316.0000	3.16792	286.676	0.202799	-0.00110713
315.5000	3.22218	286.906	0.205146	-0.00111696
315.0000	3.2749	287.168	0.207563	-0.00110651
314.5000	3.32987	287.43	0.21001	-0.00111466
314.0000	3.38107	287.697	0.212333	-0.001144
313.5000	3.44238	287.978	0.215046	-0.00115566
313.0000	3.49822	288.28	0.218039	-0.00117623
312.5000	3.57074	288.58	0.220832	-0.00119972
312.0000	3.63641	288.895	0.223529	-0.00122269
311.5000	3.70852	289.224	0.226611	-0.00123597
311.0000	3.78104	289.57	0.229698	-0.00126635
310.5000	3.85015	289.952	0.23356	-0.00130313
310.0000	3.9241	290.317	0.237282	-0.00131599
309.5000	4.00592	290.723	0.240902	-0.00132628
309.0000	4.09296	291.163	0.244452	-0.00134317
308.5000	4.19153	291.626	0.248381	-0.00135452
308.0000	4.29968	292.047	0.25218	-0.00138435
307.5000	4.42064	292.518	0.256303	-0.00141767
307.0000	4.5339	292.964	0.26026	-0.00144487
306.5000	4.64544	293.458	0.264498	-0.00147705
306.0000	4.75628	293.946	0.268873	-0.00149844
305.5000	4.87533	294.481	0.274094	-0.00153243
305.0000	4.99517	295.011	0.279462	-0.00157325
304.5000	5.12084	295.593	0.28509	-0.00160082
304.0000	5.23969	296.181	0.290744	-0.00163062
303.5000	5.35946	296.763	0.296496	-0.00164162
303.0000	5.46909	297.404	0.302846	-0.0016749
302.5000	5.57637	298.057	0.309534	-0.00169907
302.0000	5.66893	298.726	0.316021	-0.00172794
301.5000	5.75978	299.414	0.322416	-0.00176129
301.0000	5.84307	300.101	0.32901	-0.00180166
300.5000	5.9135	300.713	0.335165	-0.00181624
300.0000	5.97901	301.447	0.34257	-0.00183718

##### Extended Information
[Comments]
Sample name	50% R-JS after DT
Comment
User
Division
Company	Labo systeme complexes hors equilibre

[Detailed Information]
Creation date	10/16/2025 2:34 PM

Data array type	Linear data array * 4
Horizontal axis	Wavelength [nm]
Vertical axis(1)	CD [mdeg]
Vertical axis(2)	HT [V]
Vertical axis(3)	Abs
Vertical axis(4)	LD [dOD]
Start	700 nm
End	300 nm
Data interval	0.5 nm
Data points	801     

[Measurement Information]
Instrument name	CD Jasco
Model name	J-1500
Serial No.	A005261638

Detector	PM-539
Detector S/N	A0052PM539
  Lock-in amp.	X mode
  HT volt	Auto

Detector	EXPML-535
Detector S/N	A0001
  Lock-in amp.	X mode
  HT volt	Auto

Measurement date	10/16/2025 2:33 PM

Overload detect	1
Photometric mode	CD, HT, Abs, LD
Measure range	700 - 300 nm
Data pitch	0.5 nm
CD scale	200 mdeg/1.0 dOD
FL scale	200 mdeg/1.0 dOD
D.I.T.	1 sec
Bandwidth	1.00 nm
Start mode	Immediately
Scanning speed	500 nm/min
Baseline correction	Baseline
Shutter control	Auto

Concentration	50 umol/L
Solvent	water

