TITLE	8% S-JS 1
DATA TYPE	
ORIGIN	JASCO
OWNER	
DATE	25/09/22
TIME	16:30:17
SPECTROMETER/DATA SYSTEM	
LOCALE	1033
RESOLUTION	
DELTAX	-0.5
XUNITS	NANOMETERS
YUNITS	CD [mdeg]
Y2UNITS	LD [dOD]
Y3UNITS	ABSORBANCE
Y4UNITS	HT [V]
FIRSTX	  700.0000
LASTX	  250.0000
NPOINTS	     901
FIRSTY	     2.46837
MAXY	   148.59363
MINY	   -19.14621
XYDATA
700.0000	2.46837	-0.00147581	0.155878	324.033
699.5000	2.29899	-0.00150632	0.155552	323.452
699.0000	2.44683	-0.00150037	0.155232	322.782
698.5000	2.15401	-0.0015331	0.15543	322.103
698.0000	2.4958	-0.00152483	0.155716	321.428
697.5000	2.42745	-0.00153844	0.156118	320.83
697.0000	2.61894	-0.00151746	0.1565	320.246
696.5000	2.25903	-0.00154226	0.157073	319.763
696.0000	2.47432	-0.00152171	0.157772	319.341
695.5000	2.48849	-0.0015734	0.15851	319.004
695.0000	2.51835	-0.00158687	0.159221	318.761
694.5000	3.07554	-0.00157096	0.159697	318.549
694.0000	2.98332	-0.00157087	0.160086	318.358
693.5000	2.83868	-0.0015871	0.160443	318.189
693.0000	2.84325	-0.00160068	0.160938	318.074
692.5000	2.76271	-0.00160883	0.161558	318.007
692.0000	2.53461	-0.00160948	0.162507	318.034
691.5000	2.75606	-0.00162105	0.163574	318.183
691.0000	2.80112	-0.00163502	0.164899	318.472
690.5000	2.79093	-0.00162418	0.165781	318.819
690.0000	2.51691	-0.00166425	0.166426	319.222
689.5000	2.54881	-0.00166305	0.166644	319.618
689.0000	2.59154	-0.00167714	0.167034	320.036
688.5000	2.84553	-0.00167826	0.167242	320.418
688.0000	3.23171	-0.00169948	0.16738	320.763
687.5000	3.15327	-0.00167915	0.167268	321.069
687.0000	3.09101	-0.00167705	0.167145	321.342
686.5000	2.76309	-0.00167178	0.167287	321.612
686.0000	2.63763	-0.00170943	0.167496	321.886
685.5000	2.89425	-0.00169831	0.168002	322.196
685.0000	2.93133	-0.00170621	0.168491	322.52
684.5000	3.25499	-0.00168616	0.168782	322.834
684.0000	3.31958	-0.00168789	0.168989	323.138
683.5000	3.54232	-0.00166933	0.168954	323.398
683.0000	3.16588	-0.00165336	0.168668	323.592
682.5000	2.89697	-0.00166103	0.168194	323.692
682.0000	2.82127	-0.00167689	0.167869	323.724
681.5000	2.71783	-0.00165714	0.167829	323.706
681.0000	2.6558	-0.00166782	0.168093	323.69
680.5000	2.63721	-0.00169333	0.168119	323.649
680.0000	2.59282	-0.00169419	0.16838	323.634
679.5000	2.4468	-0.00167682	0.168846	323.638
679.0000	2.58505	-0.00167745	0.169342	323.645
678.5000	2.88343	-0.00172218	0.169795	323.649
678.0000	2.94404	-0.00170244	0.170242	323.662
677.5000	3.0273	-0.00170785	0.170595	323.68
677.0000	2.99204	-0.00171679	0.170908	323.714
676.5000	2.59735	-0.00171537	0.171112	323.756
676.0000	2.12277	-0.00172418	0.171331	323.802
675.5000	2.27668	-0.00173537	0.171516	323.86
675.0000	2.18288	-0.00177655	0.171825	323.923
674.5000	2.64958	-0.0017763	0.172201	323.999
674.0000	2.78108	-0.00177367	0.172851	324.106
673.5000	2.8274	-0.00176172	0.173239	324.222
673.0000	3.01664	-0.00175847	0.173606	324.332
672.5000	3.28346	-0.001755	0.173899	324.439
672.0000	3.54478	-0.00174163	0.174189	324.544
671.5000	3.58308	-0.00173178	0.174534	324.65
671.0000	3.51791	-0.00176507	0.1749	324.774
670.5000	3.58712	-0.00176465	0.175169	324.891
670.0000	3.49616	-0.00177841	0.175488	325.021
669.5000	3.372	-0.00179044	0.175878	325.159
669.0000	3.29229	-0.00182132	0.176196	325.296
668.5000	3.58673	-0.00184755	0.176455	325.431
668.0000	3.92934	-0.00187399	0.17687	325.588
667.5000	4.13867	-0.00188171	0.177428	325.753
667.0000	4.44362	-0.00188256	0.177703	325.9
666.5000	4.2094	-0.0018734	0.178033	326.03
666.0000	3.88534	-0.0018907	0.178308	326.145
665.5000	4.0343	-0.00190397	0.178486	326.237
665.0000	4.01469	-0.00189907	0.178785	326.315
664.5000	3.85155	-0.00190108	0.179035	326.379
664.0000	3.60547	-0.00191842	0.179331	326.431
663.5000	3.88481	-0.00193721	0.179421	326.458
663.0000	3.71279	-0.00197191	0.179621	326.473
662.5000	3.64245	-0.00196673	0.179968	326.477
662.0000	3.51217	-0.00198677	0.180147	326.45
661.5000	3.55367	-0.00198659	0.180234	326.398
661.0000	3.37204	-0.00196298	0.180351	326.324
660.5000	3.42717	-0.00192139	0.180474	326.222
660.0000	3.49743	-0.00190871	0.180804	326.097
659.5000	3.36248	-0.00192173	0.180945	325.933
659.0000	3.33485	-0.00193318	0.181133	325.712
658.5000	3.61915	-0.00195373	0.181406	325.474
658.0000	3.96729	-0.00194388	0.181693	325.242
657.5000	4.14662	-0.00194481	0.182011	324.999
657.0000	4.12852	-0.00199031	0.182501	324.798
656.5000	4.23655	-0.00202245	0.183108	324.592
656.0000	4.43879	-0.00203108	0.183691	324.427
655.5000	4.33935	-0.00202232	0.184278	324.285
655.0000	4.21458	-0.00202819	0.185058	324.184
654.5000	4.2394	-0.00202674	0.185686	324.107
654.0000	4.39904	-0.00203058	0.186407	324.063
653.5000	4.37999	-0.00203487	0.18711	324.053
653.0000	4.6269	-0.00201918	0.187911	324.087
652.5000	4.80468	-0.00202939	0.18866	324.142
652.0000	4.77603	-0.00206773	0.18951	324.241
651.5000	4.79858	-0.0020862	0.190244	324.375
651.0000	4.64785	-0.00212749	0.191108	324.557
650.5000	4.63129	-0.00213618	0.19187	324.774
650.0000	4.77617	-0.00215591	0.192709	325.005
649.5000	4.7775	-0.00218118	0.193324	325.24
649.0000	4.73692	-0.00220776	0.193911	325.441
648.5000	4.96393	-0.00217926	0.19438	325.656
648.0000	4.94308	-0.00222697	0.194903	325.843
647.5000	5.05853	-0.00223528	0.195307	326.003
647.0000	5.28351	-0.00225556	0.195743	326.134
646.5000	5.49609	-0.00226822	0.196035	326.232
646.0000	6.00038	-0.00227661	0.196445	326.291
645.5000	6.0996	-0.00226993	0.197008	326.326
645.0000	6.29152	-0.00228122	0.197513	326.33
644.5000	6.28063	-0.00231978	0.198129	326.326
644.0000	6.31008	-0.00232904	0.198682	326.302
643.5000	6.10929	-0.00234453	0.199243	326.26
643.0000	6.61703	-0.00234939	0.199748	326.197
642.5000	6.64977	-0.00235011	0.200424	326.121
642.0000	6.62302	-0.00237645	0.201007	326.045
641.5000	6.67136	-0.00239129	0.201666	325.959
641.0000	6.96524	-0.00238716	0.202504	325.883
640.5000	6.91304	-0.00241056	0.203123	325.807
640.0000	6.84499	-0.00243259	0.203706	325.726
639.5000	7.18023	-0.00242571	0.204679	325.649
639.0000	7.28278	-0.00246639	0.205672	325.583
638.5000	7.27619	-0.00246224	0.206768	325.529
638.0000	7.41228	-0.00248092	0.207685	325.481
637.5000	7.40891	-0.00251692	0.20867	325.456
637.0000	7.2032	-0.00254383	0.209558	325.43
636.5000	7.26349	-0.00256001	0.210537	325.412
636.0000	7.38427	-0.00259667	0.211312	325.394
635.5000	7.57369	-0.00263379	0.212192	325.395
635.0000	7.55557	-0.0026563	0.213084	325.409
634.5000	7.441	-0.00266994	0.213995	325.43
634.0000	7.65145	-0.00267761	0.214852	325.452
633.5000	7.61692	-0.00269237	0.215702	325.475
633.0000	7.39987	-0.00275452	0.216578	325.491
632.5000	7.40273	-0.00277724	0.217488	325.485
632.0000	7.85994	-0.00277212	0.218559	325.493
631.5000	8.22547	-0.00279745	0.219545	325.496
631.0000	8.06799	-0.00283458	0.220573	325.503
630.5000	8.20634	-0.00284221	0.221532	325.491
630.0000	8.33709	-0.00284688	0.222577	325.488
629.5000	8.34898	-0.00287231	0.223823	325.479
629.0000	8.45816	-0.00289616	0.224871	325.471
628.5000	8.68862	-0.00291944	0.226051	325.48
628.0000	9.03834	-0.0029147	0.227264	325.498
627.5000	9.29872	-0.0029206	0.228549	325.527
627.0000	9.26069	-0.00293281	0.229852	325.565
626.5000	9.49371	-0.00296596	0.231153	325.624
626.0000	9.48462	-0.00299189	0.232659	325.701
625.5000	9.76611	-0.00302035	0.234214	325.802
625.0000	10.1034	-0.00303688	0.235759	325.927
624.5000	10.186	-0.00305974	0.237372	326.078
624.0000	10.2247	-0.00309135	0.238891	326.247
623.5000	9.92331	-0.00313234	0.240447	326.435
623.0000	9.93807	-0.00315188	0.242024	326.624
622.5000	10.1074	-0.00316544	0.243609	326.829
622.0000	10.3046	-0.0032287	0.245144	327.046
621.5000	10.4783	-0.00327728	0.246811	327.281
621.0000	10.8668	-0.00328801	0.248317	327.523
620.5000	11.3937	-0.00331736	0.250022	327.779
620.0000	11.5122	-0.00335276	0.251715	328.047
619.5000	11.4879	-0.00341837	0.253935	328.379
619.0000	11.76	-0.00347295	0.256164	328.725
618.5000	11.8746	-0.00353182	0.258525	329.092
618.0000	12.13	-0.00355376	0.260558	329.42
617.5000	12.4557	-0.0035808	0.262677	329.752
617.0000	12.4803	-0.00360201	0.264742	330.072
616.5000	12.8654	-0.00361111	0.266896	330.39
616.0000	13.1419	-0.00363539	0.269056	330.69
615.5000	13.2703	-0.00367364	0.271269	331
615.0000	13.7035	-0.00370138	0.273578	331.32
614.5000	14.2301	-0.00373882	0.275793	331.63
614.0000	14.4524	-0.00376577	0.278005	331.934
613.5000	14.7698	-0.00379305	0.280375	332.244
613.0000	15.2024	-0.00382427	0.282903	332.571
612.5000	15.1293	-0.00387575	0.285472	332.886
612.0000	15.6472	-0.00391819	0.288001	333.197
611.5000	16.2648	-0.00396002	0.290394	333.48
611.0000	16.6911	-0.00399511	0.293107	333.786
610.5000	17.3991	-0.00400263	0.295871	334.084
610.0000	17.8213	-0.00406276	0.298582	334.377
609.5000	18.5592	-0.00408805	0.3013	334.675
609.0000	19.213	-0.00413923	0.304095	334.969
608.5000	19.8799	-0.00422334	0.307032	335.264
608.0000	20.2825	-0.00429214	0.310019	335.55
607.5000	20.8532	-0.0043667	0.312968	335.834
607.0000	21.6588	-0.0044269	0.31634	336.159
606.5000	21.7017	-0.00450527	0.319837	336.477
606.0000	22.2449	-0.00456959	0.32354	336.819
605.5000	23.1288	-0.00463971	0.327466	337.171
605.0000	23.5502	-0.00471201	0.331411	337.516
604.5000	23.7462	-0.00477277	0.335239	337.847
604.0000	24.2507	-0.00485056	0.339142	338.183
603.5000	25.1249	-0.00490152	0.343207	338.541
603.0000	25.7157	-0.00495661	0.347334	338.895
602.5000	26.6151	-0.00504419	0.35166	339.265
602.0000	27.2925	-0.00511951	0.355943	339.628
601.5000	28.3653	-0.00519877	0.360688	340.022
601.0000	29.1752	-0.0052803	0.365652	340.432
600.5000	30.059	-0.00535426	0.371118	340.874
600.0000	30.6106	-0.00544892	0.376762	341.32
599.5000	31.7387	-0.00554833	0.382472	341.772
599.0000	32.8643	-0.00564135	0.388411	342.225
598.5000	34.2623	-0.00572352	0.394671	342.7
598.0000	35.6072	-0.00578782	0.40071	343.16
597.5000	36.8328	-0.00586461	0.40699	343.64
597.0000	38.0193	-0.00596903	0.413755	344.176
596.5000	39.41	-0.00610437	0.42056	344.699
596.0000	41.3376	-0.00620634	0.427592	345.261
595.5000	42.6013	-0.00630486	0.434924	345.837
595.0000	43.655	-0.00645109	0.442459	346.41
594.5000	45.1763	-0.00658423	0.4505	347.05
594.0000	46.8604	-0.00669081	0.459356	347.757
593.5000	48.2419	-0.00681246	0.468352	348.471
593.0000	49.6853	-0.00695687	0.477503	349.214
592.5000	51.7914	-0.00708417	0.486932	350.017
592.0000	53.5854	-0.0071926	0.495981	350.828
591.5000	55.5958	-0.00729747	0.504817	351.597
591.0000	57.3637	-0.00741604	0.514446	352.457
590.5000	59.4079	-0.00753548	0.523972	353.345
590.0000	60.882	-0.00766334	0.534367	354.312
589.5000	63.107	-0.00779679	0.544963	355.31
589.0000	65.3292	-0.00791024	0.55565	356.324
588.5000	67.4873	-0.00805305	0.567087	357.413
588.0000	69.5121	-0.00817274	0.578762	358.543
587.5000	72.0021	-0.00832212	0.590821	359.724
587.0000	74.4505	-0.00843633	0.603222	360.983
586.5000	77.0111	-0.00853424	0.615284	362.182
586.0000	79.4745	-0.0086634	0.627438	363.405
585.5000	81.6461	-0.00878634	0.63898	364.597
585.0000	84.0966	-0.00889171	0.651164	365.834
584.5000	86.0251	-0.00900531	0.662781	367.024
584.0000	88.3465	-0.00915161	0.675119	368.279
583.5000	90.5098	-0.00927518	0.687768	369.572
583.0000	92.767	-0.00935894	0.700943	370.932
582.5000	95.1113	-0.00948937	0.714012	372.275
582.0000	97.7719	-0.00959812	0.726664	373.558
581.5000	99.8639	-0.00972315	0.739049	374.838
581.0000	101.402	-0.0098604	0.75139	376.103
580.5000	103.139	-0.00995107	0.762932	377.312
580.0000	105.536	-0.0100299	0.774324	378.475
579.5000	107.201	-0.01011	0.785254	379.593
579.0000	108.909	-0.010202	0.795688	380.651
578.5000	110.495	-0.0103134	0.805543	381.64
578.0000	111.817	-0.010434	0.815062	382.597
577.5000	112.77	-0.0105361	0.824489	383.525
577.0000	113.384	-0.0106353	0.832907	384.338
576.5000	114.413	-0.0107253	0.841144	385.138
576.0000	114.743	-0.010771	0.848366	385.839
575.5000	115.207	-0.0108149	0.855211	386.464
575.0000	115.039	-0.0108941	0.860705	386.967
574.5000	115.254	-0.0109405	0.865923	387.444
574.0000	115.105	-0.0109995	0.870326	387.824
573.5000	115.085	-0.0110232	0.874249	388.134
573.0000	115.165	-0.0110212	0.877597	388.379
572.5000	114.586	-0.0110383	0.880074	388.504
572.0000	113.608	-0.0110225	0.882197	388.594
571.5000	112.401	-0.0110617	0.883616	388.618
571.0000	111.583	-0.011057	0.884462	388.534
570.5000	110.353	-0.0110671	0.884778	388.416
570.0000	109.106	-0.011044	0.884325	388.23
569.5000	107.912	-0.0110049	0.883388	387.985
569.0000	107.206	-0.0109855	0.88214	387.689
568.5000	106.292	-0.0109417	0.880527	387.366
568.0000	105.356	-0.0108619	0.878683	386.968
567.5000	104.649	-0.0108133	0.876452	386.525
567.0000	103.855	-0.0107328	0.87402	386.096
566.5000	102.936	-0.0106697	0.871442	385.624
566.0000	102.112	-0.0106037	0.868783	385.135
565.5000	101.056	-0.0105906	0.866036	384.666
565.0000	100.216	-0.0105364	0.863518	384.187
564.5000	99.978	-0.010505	0.86099	383.723
564.0000	99.8596	-0.0104801	0.858627	383.28
563.5000	99.4239	-0.0104361	0.856415	382.837
563.0000	98.9395	-0.0104091	0.854167	382.415
562.5000	98.6316	-0.010381	0.852249	382.015
562.0000	98.5321	-0.0103381	0.850679	381.655
561.5000	98.6265	-0.010275	0.849308	381.291
561.0000	98.8419	-0.0102549	0.848178	380.953
560.5000	98.824	-0.0102348	0.847383	380.668
560.0000	99.2916	-0.0102648	0.846858	380.451
559.5000	99.6585	-0.0102707	0.846813	380.268
559.0000	99.9556	-0.0102763	0.847234	380.155
558.5000	100.164	-0.0103221	0.848192	380.088
558.0000	100.743	-0.0103722	0.849497	380.069
557.5000	101.438	-0.0104028	0.851416	380.11
557.0000	102.129	-0.0104334	0.853706	380.205
556.5000	103.058	-0.0104552	0.856467	380.363
556.0000	104.441	-0.0104523	0.859975	380.613
555.5000	104.835	-0.0105154	0.864018	380.923
555.0000	106.044	-0.0105532	0.868687	381.291
554.5000	107.912	-0.0105803	0.873777	381.716
554.0000	109.553	-0.0106266	0.879484	382.211
553.5000	111.138	-0.0107116	0.88525	382.692
553.0000	113.093	-0.0107839	0.89146	383.265
552.5000	114.867	-0.010837	0.898042	383.892
552.0000	116.225	-0.0109013	0.905681	384.596
551.5000	117.61	-0.0109569	0.913354	385.322
551.0000	119.49	-0.0110627	0.92204	386.16
550.5000	121.629	-0.0111676	0.931001	387.026
550.0000	123.766	-0.0112303	0.941052	388.023
549.5000	125.539	-0.0113189	0.950807	389.001
549.0000	127.028	-0.0113841	0.961129	390.044
548.5000	128.985	-0.0114584	0.971909	391.159
548.0000	130.604	-0.0115801	0.983434	392.343
547.5000	132.091	-0.0117073	0.994919	393.537
547.0000	134.593	-0.0118059	1.00731	394.83
546.5000	136.118	-0.0119231	1.0192	396.112
546.0000	137.337	-0.0120369	1.03143	397.44
545.5000	138.989	-0.0121341	1.04369	398.767
545.0000	140.237	-0.0121991	1.05541	400.078
544.5000	140.861	-0.0122909	1.06782	401.421
544.0000	142.371	-0.0123975	1.08024	402.788
543.5000	143.52	-0.0124338	1.09269	404.149
543.0000	144.756	-0.0125459	1.10484	405.487
542.5000	145.535	-0.0126169	1.11708	406.819
542.0000	146.33	-0.0126989	1.12911	408.124
541.5000	147.517	-0.0127466	1.14095	409.432
541.0000	147.874	-0.0128393	1.15224	410.681
540.5000	148.237	-0.0129505	1.16375	411.93
540.0000	148.131	-0.0130568	1.17475	413.084
539.5000	148.594	-0.0131209	1.18486	414.168
539.0000	148.047	-0.0131976	1.19486	415.244
538.5000	147.656	-0.0132898	1.20425	416.244
538.0000	146.426	-0.0133784	1.21264	417.112
537.5000	145.531	-0.0134124	1.22071	417.931
537.0000	144.286	-0.0134648	1.22817	418.666
536.5000	142.418	-0.0135336	1.2348	419.301
536.0000	140.64	-0.0135024	1.2409	419.877
535.5000	138.162	-0.0135504	1.24619	420.359
535.0000	136.412	-0.0135895	1.25096	420.777
534.5000	134.376	-0.0136099	1.25485	421.059
534.0000	132.21	-0.0136217	1.25802	421.289
533.5000	129.14	-0.0137062	1.26065	421.439
533.0000	126.614	-0.0137235	1.26256	421.49
532.5000	124.666	-0.0137207	1.2641	421.51
532.0000	121.88	-0.0137367	1.26502	421.462
531.5000	119.299	-0.0137072	1.26539	421.348
531.0000	116.805	-0.0137138	1.26535	421.134
530.5000	114.151	-0.0136931	1.26473	420.861
530.0000	111.376	-0.0136994	1.26377	420.508
529.5000	109	-0.013646	1.26252	420.173
529.0000	106.413	-0.0136543	1.2612	419.809
528.5000	104.446	-0.0136359	1.25953	419.411
528.0000	102.739	-0.0136346	1.25763	419.021
527.5000	100.865	-0.013667	1.25541	418.552
527.0000	98.8624	-0.0136338	1.25285	418.012
526.5000	96.5791	-0.0136269	1.25029	417.488
526.0000	94.0802	-0.0136109	1.24746	416.947
525.5000	92.2274	-0.013577	1.24463	416.387
525.0000	91.121	-0.0135074	1.24168	415.84
524.5000	89.7267	-0.0134786	1.23902	415.316
524.0000	88.6231	-0.0134067	1.23667	414.835
523.5000	87.4158	-0.0133464	1.23435	414.357
523.0000	85.5187	-0.0133711	1.23215	413.891
522.5000	83.5568	-0.0132726	1.2303	413.488
522.0000	82.9491	-0.0132565	1.22849	413.099
521.5000	81.7786	-0.0132258	1.22691	412.739
521.0000	80.6016	-0.0132066	1.2255	412.368
520.5000	79.0875	-0.0131791	1.22429	412.031
520.0000	78.0625	-0.0131585	1.22346	411.722
519.5000	77.048	-0.0131342	1.22281	411.425
519.0000	76.1653	-0.0131348	1.22249	411.187
518.5000	74.444	-0.0131251	1.22225	411.005
518.0000	73.6035	-0.013099	1.2223	410.861
517.5000	72.3186	-0.013068	1.22253	410.74
517.0000	70.7294	-0.0130576	1.22316	410.657
516.5000	69.3074	-0.0130894	1.22387	410.59
516.0000	67.3708	-0.0130574	1.22454	410.523
515.5000	65.4635	-0.0131157	1.22532	410.496
515.0000	64.0148	-0.0131116	1.22623	410.458
514.5000	63.2356	-0.0131697	1.22715	410.437
514.0000	61.6875	-0.0131467	1.22821	410.405
513.5000	60.5702	-0.0131072	1.22938	410.384
513.0000	58.6927	-0.013086	1.23032	410.357
512.5000	56.9528	-0.0131146	1.23123	410.341
512.0000	55.359	-0.0131212	1.23185	410.297
511.5000	53.4919	-0.0131317	1.23225	410.247
511.0000	51.197	-0.0131291	1.23234	410.127
510.5000	49.8201	-0.0131058	1.23236	409.982
510.0000	47.8015	-0.0131188	1.23192	409.749
509.5000	45.2245	-0.0131272	1.23116	409.44
509.0000	42.2551	-0.0131433	1.23011	409.085
508.5000	39.6903	-0.0131105	1.22835	408.692
508.0000	37.6493	-0.0130892	1.22622	408.257
507.5000	35.4004	-0.0130685	1.22364	407.79
507.0000	32.3824	-0.0130859	1.22059	407.286
506.5000	29.9335	-0.0130311	1.21736	406.754
506.0000	27.7155	-0.0129987	1.21377	406.202
505.5000	24.5424	-0.0129875	1.20959	405.557
505.0000	22.2531	-0.0129493	1.20473	404.838
504.5000	19.9237	-0.0128958	1.19902	403.988
504.0000	17.7195	-0.0128502	1.19299	403.092
503.5000	15.5	-0.012789	1.18641	402.121
503.0000	13.7116	-0.0127084	1.1789	401.032
502.5000	11.8103	-0.0126134	1.17159	399.986
502.0000	9.15012	-0.0125599	1.1633	398.82
501.5000	6.72428	-0.0125154	1.15497	397.644
501.0000	4.67207	-0.0124509	1.14567	396.311
500.5000	2.77132	-0.0123723	1.13587	394.845
500.0000	0.587938	-0.0123128	1.12562	393.205
499.5000	-1.36783	-0.0122416	1.11487	391.387
499.0000	-2.9963	-0.0121503	1.10315	389.294
498.5000	-4.34341	-0.0120116	1.09171	387.168
498.0000	-5.62897	-0.0118957	1.08024	385.063
497.5000	-6.92559	-0.0117988	1.06815	382.989
497.0000	-8.20635	-0.0116939	1.05669	381.233
496.5000	-9.92419	-0.0116246	1.04439	379.538
496.0000	-11.402	-0.0115045	1.03224	377.933
495.5000	-12.5653	-0.0113836	1.01926	376.262
495.0000	-13.9526	-0.0113006	1.00699	374.696
494.5000	-15.2646	-0.0112098	0.994684	373.148
494.0000	-15.9216	-0.0110796	0.983056	371.704
493.5000	-16.355	-0.0109484	0.971162	370.231
493.0000	-16.7716	-0.010828	0.959894	368.879
492.5000	-16.988	-0.0106869	0.948098	367.501
492.0000	-17.3787	-0.0105464	0.935398	366.049
491.5000	-18.0176	-0.0104339	0.923728	364.756
491.0000	-18.1137	-0.0103091	0.912195	363.56
490.5000	-18.0894	-0.0101992	0.900992	362.442
490.0000	-18.3897	-0.0101014	0.889699	361.296
489.5000	-18.6221	-0.00999888	0.878756	360.035
489.0000	-18.8625	-0.0098935	0.867078	358.453
488.5000	-18.6261	-0.00977413	0.856331	356.816
488.0000	-18.5585	-0.00965373	0.845928	355.118
487.5000	-18.7126	-0.00953556	0.835917	353.389
487.0000	-18.7164	-0.00943027	0.826615	351.762
486.5000	-18.5786	-0.00929842	0.817271	350.221
486.0000	-18.6375	-0.00919729	0.808818	348.977
485.5000	-18.3781	-0.00913145	0.800266	347.85
485.0000	-18.1116	-0.00903454	0.791472	346.753
484.5000	-17.904	-0.00892159	0.782889	345.732
484.0000	-18.0474	-0.00882201	0.774131	344.748
483.5000	-18.0672	-0.00872474	0.765981	343.881
483.0000	-18.4283	-0.00861489	0.757716	343.053
482.5000	-18.4647	-0.00851168	0.750156	342.338
482.0000	-18.3394	-0.00842769	0.742915	341.671
481.5000	-18.192	-0.0083219	0.735439	341.026
481.0000	-18.5422	-0.00825461	0.728679	340.434
480.5000	-18.6651	-0.00817186	0.721464	339.752
480.0000	-18.7011	-0.00808863	0.713649	338.761
479.5000	-18.8209	-0.0080049	0.705915	337.491
479.0000	-18.7763	-0.00793126	0.699333	336.314
478.5000	-18.8573	-0.00784845	0.693687	335.505
478.0000	-18.9151	-0.0077793	0.687233	334.744
477.5000	-18.9348	-0.00771463	0.680542	333.88
477.0000	-19.1462	-0.00761421	0.673559	332.771
476.5000	-19.1015	-0.00750014	0.665409	331.264
476.0000	-18.8957	-0.00740958	0.657554	329.655
475.5000	-18.7967	-0.00731237	0.64972	327.909
475.0000	-18.6933	-0.00723931	0.641838	326.017
474.5000	-18.2006	-0.0071346	0.634156	324.022
474.0000	-18.1912	-0.00704836	0.626731	321.905
473.5000	-18.3097	-0.00692982	0.619274	319.771
473.0000	-17.7298	-0.0068101	0.612211	317.969
472.5000	-17.4659	-0.00671806	0.605114	316.594
472.0000	-17.204	-0.00659846	0.598521	315.713
471.5000	-17.046	-0.00649266	0.591637	315.263
471.0000	-16.8953	-0.00641713	0.585173	314.996
470.5000	-16.8384	-0.00633933	0.577667	314.483
470.0000	-16.6099	-0.00626426	0.570257	313.637
469.5000	-16.4885	-0.00614438	0.562902	312.554
469.0000	-16.0524	-0.00603992	0.555124	311.367
468.5000	-16.232	-0.00594353	0.547841	310.361
468.0000	-15.9862	-0.00584743	0.540921	309.648
467.5000	-15.693	-0.00573493	0.53423	309.237
467.0000	-15.3054	-0.00564197	0.528016	309.062
466.5000	-15.2846	-0.00552791	0.521867	309.118
466.0000	-14.8938	-0.00543115	0.515433	309.409
465.5000	-14.7848	-0.00533096	0.508508	309.821
465.0000	-14.6499	-0.00523546	0.500633	310.039
464.5000	-14.7493	-0.00516123	0.492243	309.765
464.0000	-14.32	-0.00505659	0.484626	309.187
463.5000	-14.2784	-0.00495949	0.477598	308.558
463.0000	-14.0271	-0.00484991	0.471243	307.993
462.5000	-13.8347	-0.00473486	0.465031	307.552
462.0000	-13.5254	-0.00465172	0.458586	307.25
461.5000	-12.947	-0.0045733	0.452673	307.124
461.0000	-12.7108	-0.00448333	0.446773	307.107
460.5000	-12.3699	-0.0044024	0.440337	307.096
460.0000	-12.0225	-0.00429733	0.433908	306.979
459.5000	-11.6509	-0.00422591	0.427878	306.748
459.0000	-11.5585	-0.00416352	0.421655	306.302
458.5000	-11.4734	-0.00409935	0.415686	305.646
458.0000	-11.3011	-0.00402821	0.410439	304.952
457.5000	-10.7879	-0.00395979	0.405379	304.367
457.0000	-10.6164	-0.00389313	0.399718	303.795
456.5000	-10.299	-0.00381105	0.393785	303.039
456.0000	-9.91318	-0.0037136	0.38823	302.163
455.5000	-9.55678	-0.0036405	0.383466	301.4
455.0000	-9.2997	-0.0035741	0.379117	300.979
454.5000	-8.91019	-0.0035076	0.374186	300.662
454.0000	-8.42922	-0.00341738	0.368899	300.306
453.5000	-8.38537	-0.00334776	0.364062	299.94
453.0000	-8.4606	-0.003278	0.359627	299.573
452.5000	-8.46625	-0.0032089	0.355328	299.201
452.0000	-8.01125	-0.00314718	0.350908	298.814
451.5000	-7.93116	-0.0030974	0.346516	298.411
451.0000	-7.89752	-0.00301324	0.342443	298.049
450.5000	-7.58141	-0.00291911	0.338359	297.815
450.0000	-7.35819	-0.00286118	0.334565	297.742
449.5000	-7.17536	-0.00280865	0.330518	297.625
449.0000	-7.05825	-0.00275182	0.326724	297.389
448.5000	-6.8226	-0.00269275	0.323527	297.237
448.0000	-6.77652	-0.00265334	0.320572	297.365
447.5000	-6.62725	-0.00259701	0.316834	297.553
447.0000	-6.45863	-0.00255473	0.312413	297.495
446.5000	-6.42223	-0.00249717	0.308584	297.192
446.0000	-6.39875	-0.00243764	0.304917	296.773
445.5000	-6.22402	-0.00237345	0.301298	296.317
445.0000	-5.84325	-0.0023211	0.297642	295.795
444.5000	-5.68675	-0.00228205	0.293938	295.242
444.0000	-5.63963	-0.00222979	0.290533	294.728
443.5000	-5.64463	-0.00217364	0.287148	294.227
443.0000	-5.28807	-0.0021333	0.284028	293.827
442.5000	-4.95893	-0.00208519	0.280987	293.459
442.0000	-4.91951	-0.00205374	0.278085	293.135
441.5000	-4.75706	-0.00199839	0.275074	292.8
441.0000	-4.71352	-0.00195447	0.272224	292.494
440.5000	-4.46038	-0.00191178	0.269372	292.189
440.0000	-4.2905	-0.00186325	0.26637	291.877
439.5000	-4.19599	-0.00180138	0.263356	291.573
439.0000	-4.18663	-0.00174325	0.260103	291.252
438.5000	-4.06597	-0.00169482	0.256723	290.916
438.0000	-3.87244	-0.00165124	0.253125	290.576
437.5000	-3.63033	-0.00161706	0.249843	290.266
437.0000	-3.55143	-0.00158303	0.246861	290.006
436.5000	-3.52041	-0.00155303	0.244068	289.815
436.0000	-3.26163	-0.00150526	0.24145	289.639
435.5000	-2.98849	-0.00145988	0.238535	289.454
435.0000	-2.79415	-0.00141646	0.235768	289.225
434.5000	-2.56334	-0.00135994	0.233062	288.961
434.0000	-2.53259	-0.0013187	0.230484	288.696
433.5000	-2.48566	-0.00129868	0.228075	288.424
433.0000	-2.27585	-0.00126474	0.225489	288.132
432.5000	-2.17065	-0.0012054	0.223	287.855
432.0000	-2.00963	-0.00116864	0.220499	287.562
431.5000	-1.7802	-0.0011299	0.217975	287.266
431.0000	-1.62856	-0.0011043	0.215795	286.992
430.5000	-1.70841	-0.00107838	0.21374	286.733
430.0000	-1.50987	-0.00102862	0.211688	286.469
429.5000	-1.49697	-0.000995573	0.209792	286.203
429.0000	-1.25744	-0.000963109	0.207688	285.924
428.5000	-1.16795	-0.000914718	0.20579	285.664
428.0000	-1.00446	-0.000866443	0.204071	285.406
427.5000	-0.941223	-0.000843607	0.202379	285.167
427.0000	-1.15342	-0.000830613	0.200631	284.913
426.5000	-1.14238	-0.000807206	0.198942	284.637
426.0000	-1.22644	-0.000797939	0.197242	284.316
425.5000	-1.21426	-0.000785575	0.195661	283.966
425.0000	-1.27384	-0.00073355	0.194482	283.632
424.5000	-1.30957	-0.000703677	0.193375	283.349
424.0000	-1.23148	-0.000690629	0.192361	283.138
423.5000	-1.18866	-0.000655093	0.191212	282.964
423.0000	-1.20361	-0.000631865	0.190021	282.808
422.5000	-1.16318	-0.000605914	0.188558	282.643
422.0000	-1.03601	-0.000573673	0.187465	282.493
421.5000	-1.01452	-0.000555288	0.186557	282.368
421.0000	-1.14921	-0.000551319	0.185535	282.244
420.5000	-1.10369	-0.000532252	0.184637	282.12
420.0000	-0.991344	-0.000526173	0.183502	281.972
419.5000	-0.909221	-0.000499427	0.182524	281.836
419.0000	-0.823715	-0.000492156	0.181834	281.717
418.5000	-0.645122	-0.000466309	0.181175	281.612
418.0000	-0.819832	-0.000444755	0.180704	281.555
417.5000	-0.693758	-0.000419152	0.180186	281.53
417.0000	-0.449236	-0.000401315	0.179533	281.544
416.5000	-0.191182	-0.000385433	0.178846	281.552
416.0000	-0.205866	-0.00038273	0.178137	281.501
415.5000	-0.214364	-0.000384141	0.177471	281.413
415.0000	-0.101283	-0.00037297	0.177099	281.319
414.5000	0.0586343	-0.000361658	0.176973	281.209
414.0000	0.25309	-0.000353995	0.17665	281.12
413.5000	0.378578	-0.000342062	0.176159	281.026
413.0000	0.220191	-0.000335531	0.176151	280.96
412.5000	0.324318	-0.000332806	0.175985	280.915
412.0000	0.378753	-0.000313457	0.175805	280.86
411.5000	0.544549	-0.000318125	0.17565	280.828
411.0000	0.423761	-0.000314126	0.175523	280.8
410.5000	0.549679	-0.000299662	0.175383	280.782
410.0000	0.63566	-0.000294178	0.175462	280.798
409.5000	0.70669	-0.000275902	0.175256	280.8
409.0000	0.726022	-0.00028076	0.175202	280.817
408.5000	0.546451	-0.000278017	0.175208	280.824
408.0000	0.695634	-0.000282997	0.175142	280.815
407.5000	0.671401	-0.000283572	0.175359	280.817
407.0000	0.739682	-0.000263222	0.175597	280.811
406.5000	0.678649	-0.000272163	0.175555	280.786
406.0000	0.639552	-0.000265862	0.175666	280.756
405.5000	0.659498	-0.000276306	0.175883	280.691
405.0000	0.567513	-0.00027971	0.176146	280.593
404.5000	0.640904	-0.000275828	0.17629	280.472
404.0000	0.642277	-0.000250267	0.176627	280.325
403.5000	0.683281	-0.000240266	0.176979	280.166
403.0000	0.774155	-0.000238718	0.177285	280.007
402.5000	0.788889	-0.000246477	0.177912	279.846
402.0000	0.730864	-0.000253927	0.17835	279.694
401.5000	0.794366	-0.000259249	0.17884	279.533
401.0000	1.0085	-0.000253563	0.179652	279.43
400.5000	0.976365	-0.000262262	0.180481	279.361
400.0000	1.08411	-0.000263184	0.181124	279.311
399.5000	1.14546	-0.000262202	0.181538	279.278
399.0000	1.23833	-0.000261045	0.182037	279.257
398.5000	1.43621	-0.000243436	0.182926	279.271
398.0000	1.62114	-0.000241076	0.183778	279.309
397.5000	1.65349	-0.000235926	0.184635	279.383
397.0000	1.84498	-0.000249265	0.185644	279.506
396.5000	2.10301	-0.000247458	0.186509	279.654
396.0000	2.1684	-0.000250389	0.187352	279.822
395.5000	2.21088	-0.000256107	0.188155	280.019
395.0000	2.12747	-0.00027106	0.189102	280.251
394.5000	2.21968	-0.000256729	0.190051	280.51
394.0000	2.34653	-0.000253765	0.190877	280.775
393.5000	2.40071	-0.000263283	0.19199	281.068
393.0000	2.45513	-0.000262887	0.19296	281.347
392.5000	2.62697	-0.000271905	0.193757	281.587
392.0000	2.68244	-0.00026937	0.194908	281.81
391.5000	2.71504	-0.000266938	0.19615	282.019
391.0000	2.67216	-0.000292216	0.197403	282.213
390.5000	2.65602	-0.000309978	0.198453	282.386
390.0000	2.67448	-0.000331554	0.199448	282.568
389.5000	2.74044	-0.000328709	0.2006	282.733
389.0000	2.79637	-0.000323826	0.201935	282.884
388.5000	2.71112	-0.000341581	0.203229	283.027
388.0000	2.67189	-0.000354611	0.204798	283.184
387.5000	2.84774	-0.000369467	0.206269	283.324
387.0000	2.85337	-0.000383303	0.207699	283.456
386.5000	2.94559	-0.000383186	0.209135	283.567
386.0000	3.03221	-0.000415339	0.210797	283.686
385.5000	3.15076	-0.000423469	0.212544	283.784
385.0000	3.15739	-0.000435161	0.214151	283.879
384.5000	3.15239	-0.000450941	0.215769	283.97
384.0000	3.12399	-0.000462181	0.21747	284.07
383.5000	3.04973	-0.000479861	0.218915	284.162
383.0000	2.99812	-0.000497177	0.220512	284.266
382.5000	3.00324	-0.000484044	0.222003	284.378
382.0000	2.9961	-0.000483021	0.223906	284.498
381.5000	3.07874	-0.00048581	0.225556	284.609
381.0000	2.87152	-0.00051334	0.227161	284.735
380.5000	3.00865	-0.0005314	0.228436	284.853
380.0000	3.0849	-0.000530186	0.229616	284.955
379.5000	3.22912	-0.000532534	0.23091	285.069
379.0000	3.24024	-0.000542543	0.232203	285.184
378.5000	3.211	-0.000558935	0.23347	285.301
378.0000	3.15293	-0.000576803	0.234568	285.414
377.5000	3.34199	-0.000574861	0.235545	285.512
377.0000	3.43258	-0.000574627	0.236281	285.597
376.5000	3.61339	-0.000579655	0.237243	285.683
376.0000	3.74027	-0.000580017	0.238228	285.763
375.5000	3.86855	-0.00060191	0.239142	285.838
375.0000	3.98468	-0.000615499	0.240112	285.926
374.5000	4.03746	-0.000617219	0.240881	285.991
374.0000	4.27841	-0.000628016	0.241988	286.069
373.5000	4.52808	-0.000663493	0.242777	286.131
373.0000	4.54428	-0.000687377	0.243789	286.202
372.5000	4.738	-0.00067829	0.244574	286.256
372.0000	4.79471	-0.000684044	0.245621	286.34
371.5000	4.95283	-0.000694636	0.246675	286.43
371.0000	4.95693	-0.000709426	0.247588	286.519
370.5000	5.10111	-0.000709674	0.248826	286.638
370.0000	5.31689	-0.000703208	0.249809	286.734
369.5000	5.44869	-0.000721982	0.25089	286.837
369.0000	5.46521	-0.000726832	0.252062	286.95
368.5000	5.50159	-0.000743664	0.253384	287.096
368.0000	5.55639	-0.000750558	0.254766	287.253
367.5000	5.6457	-0.000754509	0.256207	287.414
367.0000	5.68193	-0.000767614	0.257483	287.571
366.5000	5.82171	-0.00077551	0.259009	287.731
366.0000	5.97295	-0.000796422	0.260795	287.918
365.5000	6.09639	-0.000804302	0.262151	288.078
365.0000	6.09288	-0.000801294	0.263579	288.25
364.5000	6.12409	-0.000811392	0.265035	288.42
364.0000	6.34501	-0.00082462	0.266532	288.589
363.5000	6.13235	-0.000846708	0.267885	288.749
363.0000	6.0291	-0.000864509	0.26942	288.917
362.5000	6.32852	-0.00087629	0.270803	289.084
362.0000	6.52887	-0.000902621	0.272331	289.26
361.5000	6.71225	-0.000902605	0.27392	289.436
361.0000	6.6006	-0.000918494	0.275457	289.612
360.5000	6.45244	-0.000950954	0.27695	289.782
360.0000	6.48785	-0.000958729	0.278318	289.945
359.5000	6.71583	-0.000964474	0.279694	290.104
359.0000	6.7425	-0.000991186	0.281132	290.267
358.5000	6.83429	-0.000995802	0.282655	290.437
358.0000	7.13175	-0.00100822	0.284074	290.608
357.5000	6.937	-0.00104338	0.285529	290.78
357.0000	6.99568	-0.00105315	0.286937	290.956
356.5000	7.28715	-0.00106744	0.288355	291.117
356.0000	7.29899	-0.00111153	0.28974	291.278
355.5000	7.29199	-0.00112567	0.291127	291.446
355.0000	7.65961	-0.00114568	0.292633	291.611
354.5000	7.82334	-0.00115078	0.294088	291.79
354.0000	7.68357	-0.0011699	0.295612	291.963
353.5000	7.73893	-0.00118139	0.297012	292.135
353.0000	7.72963	-0.00120011	0.298488	292.312
352.5000	7.87363	-0.00122202	0.300033	292.505
352.0000	8.11306	-0.00121919	0.301617	292.699
351.5000	8.33607	-0.00125126	0.30318	292.882
351.0000	8.47325	-0.00128536	0.304827	293.075
350.5000	8.74039	-0.00129537	0.306364	293.257
350.0000	8.91128	-0.00130517	0.307974	293.448
349.5000	9.34937	-0.00131549	0.309496	293.636
349.0000	9.71779	-0.00132723	0.311236	293.846
348.5000	9.91619	-0.00134313	0.313089	294.052
348.0000	9.91064	-0.00136008	0.315107	294.264
347.5000	10.1755	-0.00136755	0.316782	294.456
347.0000	10.2668	-0.00139687	0.318428	294.649
346.5000	10.3828	-0.00141788	0.320164	294.846
346.0000	10.8388	-0.00144813	0.322087	295.041
345.5000	10.9796	-0.00146728	0.32408	295.249
345.0000	11.37	-0.00148663	0.326176	295.471
344.5000	11.8748	-0.00148795	0.328045	295.671
344.0000	12.0385	-0.00149913	0.329944	295.873
343.5000	12.1656	-0.00153187	0.33165	296.058
343.0000	12.3248	-0.00155503	0.333326	296.255
342.5000	12.3721	-0.00156811	0.335155	296.454
342.0000	12.5266	-0.00159332	0.336986	296.669
341.5000	12.7493	-0.00163341	0.338896	296.88
341.0000	12.6708	-0.00164058	0.340638	297.074
340.5000	12.8311	-0.00167223	0.342613	297.278
340.0000	12.8733	-0.00171294	0.34437	297.49
339.5000	13.0988	-0.00173415	0.346099	297.701
339.0000	13.5865	-0.00174351	0.347944	297.924
338.5000	13.7978	-0.00176403	0.349784	298.154
338.0000	13.9831	-0.00176752	0.3518	298.394
337.5000	14.1636	-0.00180406	0.353638	298.63
337.0000	14.2587	-0.00184004	0.355503	298.861
336.5000	14.4193	-0.00187058	0.357338	299.094
336.0000	14.679	-0.00188845	0.359475	299.351
335.5000	14.9719	-0.00193551	0.361393	299.589
335.0000	15.3433	-0.00196199	0.363521	299.843
334.5000	15.6539	-0.00197573	0.365793	300.121
334.0000	16.1682	-0.00198199	0.368019	300.397
333.5000	16.3681	-0.00201969	0.370528	300.689
333.0000	16.5198	-0.00205259	0.372709	300.964
332.5000	16.8876	-0.0020747	0.374863	301.235
332.0000	17.235	-0.00210661	0.377062	301.51
331.5000	17.4687	-0.00214532	0.379375	301.807
331.0000	17.6236	-0.00217519	0.382087	302.127
330.5000	17.9533	-0.00222481	0.384456	302.409
330.0000	18.1993	-0.00226564	0.386856	302.693
329.5000	18.8029	-0.00231795	0.38945	303.003
329.0000	19.1964	-0.00235349	0.39212	303.313
328.5000	19.6226	-0.00238414	0.39459	303.591
328.0000	20.1146	-0.00241413	0.397128	303.855
327.5000	20.3479	-0.00246864	0.399771	304.123
327.0000	20.6154	-0.002504	0.402375	304.381
326.5000	20.6091	-0.0025572	0.405232	304.689
326.0000	20.9227	-0.00261634	0.40818	305.005
325.5000	21.0761	-0.00266542	0.410921	305.308
325.0000	21.5364	-0.00273169	0.413582	305.606
324.5000	22.117	-0.00277748	0.416612	305.927
324.0000	22.7365	-0.00281782	0.419709	306.267
323.5000	23.2359	-0.00285844	0.422644	306.592
323.0000	23.561	-0.00289182	0.425668	306.916
322.5000	24.2048	-0.00294097	0.428555	307.239
322.0000	24.5779	-0.00297932	0.431584	307.576
321.5000	25.0999	-0.00302716	0.434714	307.923
321.0000	25.2963	-0.00303935	0.437701	308.26
320.5000	25.7033	-0.00307632	0.440909	308.609
320.0000	26.2091	-0.00310129	0.44384	308.946
319.5000	26.7539	-0.00314374	0.446833	309.297
319.0000	27.1508	-0.00319623	0.450107	309.684
318.5000	27.7871	-0.00321974	0.453558	310.089
318.0000	28.535	-0.00322991	0.456894	310.442
317.5000	28.9393	-0.00325973	0.460417	310.798
317.0000	29.6454	-0.00326955	0.463882	311.156
316.5000	30.1524	-0.00327541	0.467294	311.516
316.0000	30.546	-0.00332233	0.470778	311.892
315.5000	30.9119	-0.00335898	0.474347	312.279
315.0000	31.4237	-0.0033834	0.478344	312.718
314.5000	32.0406	-0.00340257	0.482279	313.139
314.0000	32.6607	-0.00342235	0.486327	313.568
313.5000	33.327	-0.00347431	0.490608	314.022
313.0000	33.8729	-0.00349695	0.495287	314.516
312.5000	34.7383	-0.00355437	0.499803	315.008
312.0000	35.4151	-0.00356557	0.504413	315.521
311.5000	35.9868	-0.00358513	0.509267	316.05
311.0000	36.4763	-0.00357867	0.514396	316.603
310.5000	37.0833	-0.00361692	0.520124	317.216
310.0000	37.6811	-0.0036613	0.525176	317.774
309.5000	38.228	-0.00368838	0.530733	318.39
309.0000	38.471	-0.00372869	0.536603	319.068
308.5000	38.9287	-0.00377375	0.542873	319.778
308.0000	39.2044	-0.0038154	0.548948	320.449
307.5000	39.9895	-0.00384589	0.556044	321.2
307.0000	40.5512	-0.00387825	0.56256	321.898
306.5000	40.8983	-0.00391421	0.569666	322.663
306.0000	41.3218	-0.00392369	0.576565	323.401
305.5000	41.3091	-0.00394447	0.583908	324.198
305.0000	41.7565	-0.00396673	0.591125	324.969
304.5000	41.6399	-0.00400428	0.598858	325.794
304.0000	41.7225	-0.00401213	0.606733	326.638
303.5000	41.827	-0.00405338	0.614323	327.45
303.0000	42.2794	-0.00408507	0.62245	328.322
302.5000	42.4446	-0.0041332	0.630323	329.189
302.0000	42.8617	-0.0041389	0.638262	330.057
301.5000	42.8583	-0.00414486	0.646269	330.935
301.0000	42.739	-0.00415119	0.65405	331.795
300.5000	42.904	-0.00412898	0.661133	332.551
300.0000	42.9793	-0.00412476	0.669243	333.43
299.5000	43.0209	-0.00410695	0.676978	334.278
299.0000	42.6051	-0.00411378	0.684351	335.101
298.5000	42.4429	-0.00409821	0.691993	335.936
298.0000	42.4234	-0.00408699	0.699222	336.739
297.5000	42.0895	-0.00408304	0.706606	337.569
297.0000	41.7453	-0.00407276	0.713237	338.299
296.5000	41.1883	-0.00401129	0.719579	339.002
296.0000	40.8003	-0.00399963	0.726128	339.691
295.5000	40.2597	-0.00398014	0.732938	340.381
295.0000	39.6827	-0.00395007	0.739152	341.034
294.5000	38.798	-0.00392101	0.745257	341.716
294.0000	38.1968	-0.00387763	0.751681	342.45
293.5000	37.4001	-0.00382391	0.757176	343.081
293.0000	37.0222	-0.00379392	0.763318	343.778
292.5000	36.1611	-0.00378061	0.769568	344.485
292.0000	35.5742	-0.00372899	0.775404	345.162
291.5000	34.6738	-0.00369695	0.781274	345.835
291.0000	33.9351	-0.00362359	0.787213	346.517
290.5000	33.0828	-0.00356403	0.793492	347.254
290.0000	32.3645	-0.00350609	0.799345	347.949
289.5000	31.882	-0.00346934	0.805027	348.61
289.0000	31.2231	-0.00342284	0.810814	349.275
288.5000	30.835	-0.00336828	0.817182	350.006
288.0000	30.173	-0.00331626	0.823409	350.755
287.5000	29.4558	-0.00327918	0.829656	351.541
287.0000	28.9158	-0.00322298	0.836036	352.355
286.5000	28.2715	-0.00317376	0.842493	353.141
286.0000	27.7728	-0.00310389	0.849292	353.919
285.5000	27.2873	-0.00305276	0.856092	354.688
285.0000	26.5539	-0.00299194	0.863339	355.519
284.5000	26.0424	-0.00293672	0.869871	356.286
284.0000	25.6839	-0.00290272	0.876975	357.119
283.5000	25.0452	-0.00285006	0.884403	357.982
283.0000	24.7307	-0.00279082	0.891556	358.81
282.5000	24.0842	-0.00277473	0.899416	359.714
282.0000	23.5672	-0.00270526	0.907443	360.661
281.5000	22.5423	-0.00265662	0.915397	361.585
281.0000	21.7797	-0.00258561	0.923442	362.529
280.5000	20.9085	-0.00254326	0.932235	363.579
280.0000	19.8864	-0.00249558	0.941611	364.679
279.5000	19.0859	-0.00244114	0.951215	365.807
279.0000	18.3134	-0.00241173	0.960716	366.938
278.5000	17.8873	-0.00234209	0.97092	368.15
278.0000	17.1598	-0.00228985	0.982071	369.479
277.5000	16.0587	-0.00227799	0.992447	370.722
277.0000	15.2146	-0.00225842	1.00369	372.072
276.5000	14.093	-0.00224012	1.01526	373.471
276.0000	13.2301	-0.00221232	1.02645	374.787
275.5000	12.3378	-0.00216863	1.03898	376.288
275.0000	11.1545	-0.00214611	1.05196	377.852
274.5000	10.1214	-0.00215326	1.06539	379.481
274.0000	9.41356	-0.00209733	1.07976	381.244
273.5000	8.52875	-0.00210378	1.09333	382.9
273.0000	7.95643	-0.00208079	1.10831	384.725
272.5000	7.5284	-0.00206781	1.12386	386.63
272.0000	7.18343	-0.00204092	1.13966	388.593
271.5000	6.75782	-0.00204494	1.15677	390.748
271.0000	6.56851	-0.00202972	1.1737	392.867
270.5000	5.7552	-0.00207499	1.19102	395.051
270.0000	5.5199	-0.00208295	1.20894	397.344
269.5000	4.7449	-0.00208693	1.22747	399.73
269.0000	4.79199	-0.00209134	1.24572	402.086
268.5000	4.47032	-0.00208887	1.26559	404.671
268.0000	4.08254	-0.0020919	1.28597	407.338
267.5000	2.97821	-0.00213002	1.3066	410.092
267.0000	3.06526	-0.00215489	1.32885	413.071
266.5000	3.98546	-0.00223435	1.35144	416.131
266.0000	4.56755	-0.00228027	1.37229	418.97
265.5000	5.1574	-0.00231807	1.39457	422.008
265.0000	6.0451	-0.00233088	1.41798	425.244
264.5000	7.59322	-0.00242205	1.44024	428.364
264.0000	8.91854	-0.0025226	1.46291	431.546
263.5000	10.583	-0.00255337	1.48682	434.951
263.0000	12.4386	-0.00260757	1.5087	438.092
262.5000	14.169	-0.00268326	1.53328	441.648
262.0000	16.6917	-0.00273905	1.55699	445.114
261.5000	19.4551	-0.00278353	1.58136	448.677
261.0000	22.0108	-0.00283906	1.60497	452.15
260.5000	24.8942	-0.00300288	1.63044	455.917
260.0000	29.2095	-0.00310227	1.65645	459.815
259.5000	34.0782	-0.00315724	1.68345	463.852
259.0000	38.8204	-0.00321535	1.71128	468.037
258.5000	42.9023	-0.00344901	1.74014	472.39
258.0000	47.1222	-0.00354618	1.77012	476.924
257.5000	50.9736	-0.0037668	1.7995	481.404
257.0000	55.4625	-0.00392552	1.83157	486.307
256.5000	59.7599	-0.00410039	1.86328	491.188
256.0000	65.0058	-0.00424249	1.89791	496.547
255.5000	69.0948	-0.00454434	1.93373	502.12
255.0000	75.693	-0.00472488	1.97091	507.936
254.5000	80.3466	-0.00483604	2.00717	513.652
254.0000	86.021	-0.00503282	2.04454	519.582
253.5000	90.8274	-0.00526337	2.08723	526.379
253.0000	96.0089	-0.00543334	2.12679	532.756
252.5000	101.194	-0.00567032	2.18685	542.559
252.0000	106.726	-0.00577397	2.2379	551.011
251.5000	110.513	-0.00587877	2.2837	558.665
251.0000	113.09	-0.00604981	2.33082	566.616
250.5000	114.463	-0.00608856	2.37924	574.87
250.0000	116.207	-0.00614325	2.42653	583.019

##### Extended Information
[Comments]
Sample name	8% S-JS 1
Comment
User
Division
Company	Labo systeme complexes hors equilibre

[Detailed Information]
Creation date	9/22/2025 4:30 PM

Data array type	Linear data array * 4
Horizontal axis	Wavelength [nm]
Vertical axis(1)	CD [mdeg]
Vertical axis(2)	LD [dOD]
Vertical axis(3)	Abs
Vertical axis(4)	HT [V]
Start	700 nm
End	250 nm
Data interval	0.5 nm
Data points	901     

[Measurement Information]
Instrument name	CD Jasco
Model name	J-1500
Serial No.	A005261638

Detector	PM-539
Detector S/N	A0052PM539
  Lock-in amp.	X mode
  HT volt	Auto

Detector	EXPML-535
Detector S/N	A0001
  Lock-in amp.	X mode
  HT volt	Auto

Accessory	PTC-517
Accessory S/N	A001361646
  Temperature	20.00 C
  Control sonsor	Holder
  Monitor sensor	Holder
  Start Mode	Keep target temperature +/-0.10 deg C while 5 seconds

Measurement date	9/22/2025 4:30 PM

Overload detect	1
Photometric mode	CD, LD, Abs, HT
Measure range	700 - 250 nm
Data pitch	0.5 nm
CD scale	200 mdeg/1.0 dOD
FL scale	200 mdeg/1.0 dOD
D.I.T.	1 sec
Bandwidth	1.00 nm
Start mode	Immediately
Scanning speed	500 nm/min
Baseline correction	Baseline
Shutter control	Auto

Concentration	50 mmol/L
Solvent	water

