TITLE	JS187+JS190_5E-5_H2O_0-100_100EQ+4H
DATA TYPE	
ORIGIN	JASCO
OWNER	
DATE	24/01/23
TIME	15:57:49
SPECTROMETER/DATA SYSTEM	
LOCALE	1033
RESOLUTION	
DELTAX	-0.5
XUNITS	NANOMETERS
YUNITS	CD [mdeg]
Y2UNITS	LD [dOD]
Y3UNITS	ABSORBANCE
Y4UNITS	HT [V]
FIRSTX	  700.0000
LASTX	  220.0000
NPOINTS	     961
FIRSTY	     1.68201
MAXY	    13.89053
MINY	   -10.78344
XYDATA
700.0000	1.68201	-1.43528E-005	0.00909983	305.217
699.5000	1.55393	-2.25154E-005	0.00871129	304.974
699.0000	1.42594	-1.85005E-005	0.00807986	304.663
698.5000	1.59519	4.68135E-006	0.00804768	304.324
698.0000	1.56897	6.44153E-006	0.0075617	303.943
697.5000	1.39734	2.08257E-005	0.00667463	303.548
697.0000	1.34258	4.76823E-005	0.00546898	303.105
696.5000	1.39125	4.52268E-005	0.00498719	302.648
696.0000	1.44776	5.05583E-005	0.00507307	302.127
695.5000	1.6567	4.80335E-005	0.00500883	301.594
695.0000	1.67242	2.29974E-005	0.0053603	301.101
694.5000	1.46716	2.40944E-005	0.0055037	300.61
694.0000	1.62642	1.90216E-005	0.00663837	300.135
693.5000	1.70175	2.07018E-005	0.00799787	299.687
693.0000	1.65493	3.50489E-005	0.00998517	299.297
692.5000	1.4054	3.73643E-005	0.0120725	298.94
692.0000	1.25805	4.38681E-005	0.0141043	298.617
691.5000	1.16935	2.97215E-005	0.016467	298.336
691.0000	1.24278	3.17929E-005	0.0188228	298.074
690.5000	1.26989	4.3952E-005	0.0204518	297.847
690.0000	1.28589	3.17404E-005	0.0218299	297.645
689.5000	1.33411	4.71886E-005	0.0231137	297.457
689.0000	1.13879	3.91114E-005	0.0248211	297.293
688.5000	1.15731	4.25614E-005	0.0262992	297.187
688.0000	1.12365	6.0017E-005	0.0283641	297.163
687.5000	0.902527	7.66116E-005	0.0311232	297.253
687.0000	0.827412	9.55073E-005	0.0338391	297.417
686.5000	0.741329	7.74699E-005	0.0361707	297.635
686.0000	0.62091	6.85075E-005	0.0373624	297.879
685.5000	0.631383	8.25312E-005	0.0377532	298.151
685.0000	0.349882	7.44976E-005	0.037598	298.407
684.5000	0.182599	6.0901E-005	0.0370025	298.665
684.0000	0.552932	6.19834E-005	0.0358273	298.906
683.5000	0.628562	5.70684E-005	0.0350777	299.149
683.0000	0.643026	7.26082E-005	0.0342628	299.399
682.5000	0.325975	6.52694E-005	0.0339122	299.647
682.0000	0.710882	5.51691E-005	0.0333051	299.909
681.5000	0.647907	6.02072E-005	0.0332951	300.181
681.0000	0.891826	5.76491E-005	0.0334807	300.483
680.5000	1.05647	7.96603E-005	0.0337426	300.768
680.0000	0.941744	7.37352E-005	0.0329337	301.022
679.5000	0.9782	5.98529E-005	0.0315741	301.217
679.0000	0.973649	6.22611E-005	0.0289143	301.335
678.5000	1.04235	7.56874E-005	0.0272176	301.408
678.0000	1.28346	9.14717E-005	0.0254374	301.435
677.5000	1.32337	0.000107469	0.0243214	301.432
677.0000	1.31191	0.000124207	0.0237592	301.41
676.5000	1.50654	0.000148025	0.0239264	301.386
676.0000	1.59865	0.000152106	0.0241037	301.36
675.5000	1.55093	0.000148506	0.0244456	301.349
675.0000	1.68013	0.000133584	0.0249101	301.335
674.5000	1.54643	0.000125936	0.0256755	301.32
674.0000	1.54265	0.000170904	0.026625	301.323
673.5000	1.48006	0.000174321	0.0277275	301.342
673.0000	1.52807	0.00018608	0.0278968	301.368
672.5000	1.48654	0.000187828	0.0280517	301.402
672.0000	1.58764	0.00019969	0.0285295	301.443
671.5000	1.52332	0.000212376	0.0295164	301.49
671.0000	1.40097	0.000194817	0.0304801	301.538
670.5000	1.60763	0.000207316	0.0315861	301.582
670.0000	1.58199	0.000228112	0.0326354	301.643
669.5000	1.75004	0.00023322	0.033193	301.711
669.0000	1.82821	0.000220426	0.0338381	301.786
668.5000	1.90298	0.000202371	0.0345596	301.872
668.0000	1.80112	0.000183915	0.0349627	301.96
667.5000	1.75189	0.000192226	0.0352521	302.054
667.0000	1.58296	0.000189965	0.0353709	302.159
666.5000	1.74402	0.000192883	0.0355947	302.273
666.0000	1.75081	0.000203315	0.0351576	302.4
665.5000	1.65572	0.000188375	0.0349969	302.514
665.0000	1.55795	0.000192147	0.0356521	302.628
664.5000	1.68332	0.000186374	0.03656	302.738
664.0000	1.44738	0.000170504	0.0367916	302.849
663.5000	1.46284	0.000174082	0.0360475	302.96
663.0000	1.91977	0.00019931	0.0360371	303.06
662.5000	1.9128	0.000206026	0.0359948	303.162
662.0000	2.01683	0.000172735	0.0357742	303.243
661.5000	1.62294	0.000174524	0.0361027	303.313
661.0000	1.89163	0.000168816	0.0360791	303.376
660.5000	1.92182	0.000182684	0.0357458	303.417
660.0000	1.96614	0.000187408	0.035672	303.449
659.5000	1.6848	0.000202046	0.0351226	303.467
659.0000	1.80132	0.000207282	0.0347677	303.467
658.5000	1.64418	0.000205865	0.0345286	303.444
658.0000	1.50944	0.000210404	0.0346176	303.401
657.5000	1.96421	0.000207545	0.0342045	303.345
657.0000	1.83541	0.000199723	0.0346813	303.27
656.5000	1.89296	0.000204716	0.0339957	303.169
656.0000	1.82481	0.000215783	0.0333367	303.045
655.5000	2.30379	0.000201351	0.0340072	302.897
655.0000	2.14518	0.000191029	0.0339102	302.727
654.5000	1.9829	0.00016442	0.0333168	302.559
654.0000	1.64787	0.000159074	0.0334034	302.378
653.5000	1.73228	0.000170504	0.0341335	302.2
653.0000	1.61223	0.000172045	0.035163	302.031
652.5000	1.65124	0.000197781	0.0361492	301.885
652.0000	1.82867	0.000211327	0.0375216	301.784
651.5000	1.72964	0.000205017	0.0391983	301.694
651.0000	1.666	0.000191151	0.0413911	301.637
650.5000	1.68957	0.000213869	0.0429598	301.618
650.0000	2.099	0.000197339	0.0450282	301.631
649.5000	1.87972	0.000208303	0.0465601	301.669
649.0000	1.92033	0.000219899	0.0482717	301.723
648.5000	1.91166	0.000201131	0.0491486	301.808
648.0000	2.24002	0.000213321	0.0504667	301.925
647.5000	1.94599	0.000229786	0.051759	302.066
647.0000	1.66294	0.000230979	0.0526937	302.247
646.5000	1.78403	0.000234665	0.053424	302.428
646.0000	1.84081	0.000242014	0.0552323	302.63
645.5000	1.84602	0.000247381	0.0561999	302.825
645.0000	1.84101	0.000244458	0.0561278	303.017
644.5000	1.81729	0.000234999	0.0564672	303.2
644.0000	1.48216	0.000250645	0.0568573	303.351
643.5000	1.46309	0.000238722	0.0568923	303.481
643.0000	1.61507	0.000245119	0.0568912	303.578
642.5000	1.79819	0.000243393	0.0569684	303.654
642.0000	1.89852	0.000265894	0.0570736	303.695
641.5000	1.94183	0.000265848	0.0572192	303.733
641.0000	1.81395	0.000257789	0.0577337	303.759
640.5000	1.70521	0.000273051	0.0586092	303.768
640.0000	1.73122	0.0002694	0.0597549	303.769
639.5000	1.77082	0.000258569	0.0612115	303.757
639.0000	1.82612	0.000260786	0.0624695	303.742
638.5000	1.81351	0.000250046	0.0642176	303.72
638.0000	1.74564	0.000254931	0.0654327	303.702
637.5000	1.84897	0.000267635	0.0664176	303.679
637.0000	1.70541	0.000268576	0.0681192	303.64
636.5000	1.84861	0.000262011	0.0696446	303.612
636.0000	2.01101	0.000227278	0.0704927	303.588
635.5000	2.24301	0.000244955	0.0714983	303.57
635.0000	1.98171	0.000244373	0.0729444	303.558
634.5000	1.83537	0.000229328	0.0742677	303.548
634.0000	1.51166	0.000216511	0.0756688	303.557
633.5000	1.4934	0.000204256	0.0766961	303.57
633.0000	1.42538	0.000207522	0.078352	303.595
632.5000	1.32374	0.000209736	0.0794291	303.627
632.0000	1.69114	0.000219507	0.0804766	303.656
631.5000	1.52587	0.000221115	0.0817703	303.682
631.0000	1.61483	0.000239193	0.0831139	303.716
630.5000	1.73932	0.000232247	0.0843951	303.747
630.0000	1.42132	0.000254571	0.0857794	303.779
629.5000	1.46027	0.000239882	0.0872915	303.81
629.0000	1.6124	0.000249044	0.088651	303.849
628.5000	1.53438	0.000239989	0.0897121	303.88
628.0000	1.34272	0.000264749	0.0910304	303.908
627.5000	1.24538	0.000280871	0.0927793	303.944
627.0000	1.1383	0.000273097	0.0938779	303.968
626.5000	1.10109	0.000271675	0.0948794	304.012
626.0000	1.20197	0.000285657	0.0958569	304.046
625.5000	1.16784	0.00028915	0.0975123	304.085
625.0000	0.989332	0.000280476	0.0993404	304.134
624.5000	0.985066	0.000276269	0.101123	304.181
624.0000	0.796265	0.000284228	0.10284	304.243
623.5000	0.54283	0.000296292	0.104616	304.315
623.0000	0.269647	0.000283913	0.106355	304.399
622.5000	0.342396	0.000286522	0.108348	304.505
622.0000	0.39658	0.000301313	0.110036	304.619
621.5000	0.522068	0.000297207	0.111757	304.743
621.0000	0.382778	0.000291586	0.113607	304.884
620.5000	0.344426	0.000274452	0.114995	305.017
620.0000	0.480265	0.000285353	0.116398	305.174
619.5000	0.593887	0.000277933	0.118313	305.372
619.0000	0.451908	0.000259432	0.12062	305.58
618.5000	0.473717	0.000272506	0.12343	305.812
618.0000	0.214216	0.000282079	0.126162	306.038
617.5000	0.276235	0.000286241	0.127868	306.27
617.0000	0.340268	0.000306699	0.129286	306.508
616.5000	0.51971	0.000305439	0.130774	306.747
616.0000	0.706558	0.000309348	0.132587	306.973
615.5000	0.803001	0.000307239	0.133905	307.191
615.0000	1.13336	0.000322592	0.135111	307.407
614.5000	1.15063	0.000322498	0.136174	307.626
614.0000	1.11621	0.000316731	0.137103	307.829
613.5000	1.21112	0.000322471	0.138387	308.044
613.0000	1.35447	0.000340523	0.139615	308.27
612.5000	1.41145	0.000364813	0.140804	308.482
612.0000	1.46233	0.000372204	0.142178	308.701
611.5000	1.29829	0.000360536	0.143665	308.9
611.0000	1.41215	0.000361989	0.14467	309.103
610.5000	1.57658	0.000346066	0.145539	309.301
610.0000	1.69839	0.000325699	0.146152	309.48
609.5000	1.8764	0.000311898	0.147456	309.664
609.0000	1.61649	0.00030463	0.148609	309.83
608.5000	1.45992	0.000307176	0.150142	309.997
608.0000	1.26078	0.000321062	0.151139	310.143
607.5000	1.25197	0.00030775	0.151746	310.292
607.0000	1.25818	0.000312441	0.152966	310.464
606.5000	1.00788	0.00030861	0.154146	310.619
606.0000	0.99364	0.00031963	0.156036	310.775
605.5000	0.733269	0.000306071	0.157375	310.907
605.0000	0.616652	0.000321417	0.159092	311.041
604.5000	0.646184	0.000308892	0.160433	311.161
604.0000	0.309052	0.000308339	0.161987	311.274
603.5000	0.51646	0.00030769	0.163681	311.383
603.0000	0.72102	0.0003119	0.164854	311.482
602.5000	0.738993	0.000334459	0.16654	311.584
602.0000	0.957081	0.000349174	0.1683	311.676
601.5000	0.92078	0.000372296	0.169851	311.761
601.0000	0.961207	0.000366362	0.171397	311.844
600.5000	1.26937	0.000372734	0.17342	311.921
600.0000	1.30118	0.000366598	0.17502	311.98
599.5000	1.37472	0.000379431	0.177533	312.041
599.0000	1.36588	0.00037488	0.179491	312.084
598.5000	1.24508	0.000381512	0.181868	312.107
598.0000	1.33421	0.000373747	0.183733	312.122
597.5000	1.401	0.000372376	0.185532	312.148
597.0000	1.57679	0.000357063	0.18751	312.162
596.5000	1.73702	0.000344503	0.189569	312.16
596.0000	1.81685	0.000358827	0.191717	312.159
595.5000	1.71692	0.000352119	0.193707	312.16
595.0000	1.57734	0.000370181	0.195852	312.136
594.5000	1.5985	0.000365264	0.197986	312.111
594.0000	1.78674	0.000380119	0.199601	312.089
593.5000	1.74353	0.000378571	0.201765	312.064
593.0000	1.73687	0.000378822	0.204424	312.055
592.5000	1.94521	0.00039396	0.206515	312.058
592.0000	2.12916	0.00038719	0.208686	312.091
591.5000	2.3901	0.000366849	0.210405	312.11
591.0000	2.19074	0.00036832	0.212618	312.131
590.5000	2.53017	0.000356779	0.21466	312.177
590.0000	2.63005	0.000342476	0.216936	312.237
589.5000	2.83967	0.000338241	0.21944	312.304
589.0000	2.7224	0.000331698	0.221978	312.379
588.5000	2.57462	0.000339791	0.22431	312.459
588.0000	2.50176	0.000335608	0.22707	312.566
587.5000	2.54643	0.000333181	0.229832	312.689
587.0000	2.5994	0.000318898	0.232728	312.862
586.5000	2.27093	0.000306923	0.235484	313.031
586.0000	1.85921	0.000303657	0.238729	313.196
585.5000	1.95352	0.000297773	0.241699	313.388
585.0000	1.86985	0.000287971	0.244499	313.579
584.5000	1.7949	0.000294744	0.247202	313.762
584.0000	1.47382	0.000289386	0.250343	313.963
583.5000	1.12807	0.00029894	0.253793	314.192
583.0000	0.904616	0.000318961	0.257722	314.446
582.5000	0.868431	0.000325492	0.261332	314.709
582.0000	0.50489	0.000348535	0.264878	314.962
581.5000	0.292129	0.000359742	0.268645	315.241
581.0000	-0.0744592	0.000360014	0.272728	315.526
580.5000	-0.105085	0.000361515	0.277017	315.838
580.0000	-0.258525	0.000364188	0.280995	316.138
579.5000	-0.267454	0.000368185	0.284997	316.455
579.0000	-0.47965	0.000374174	0.28912	316.773
578.5000	-0.698898	0.000377995	0.293623	317.088
578.0000	-0.828799	0.000386457	0.298068	317.427
577.5000	-0.944902	0.000395506	0.302193	317.792
577.0000	-1.44926	0.000409785	0.307228	318.161
576.5000	-1.8923	0.000413097	0.31265	318.561
576.0000	-2.03705	0.000405298	0.317884	318.95
575.5000	-2.31946	0.000401436	0.32322	319.334
575.0000	-2.55691	0.000394923	0.327908	319.711
574.5000	-2.43361	0.000403793	0.333316	320.128
574.0000	-2.70533	0.00041107	0.338979	320.542
573.5000	-3.02211	0.000404053	0.344749	320.978
573.0000	-3.44863	0.000407033	0.350266	321.436
572.5000	-3.61541	0.000396303	0.355342	321.86
572.0000	-3.87042	0.000406198	0.361132	322.36
571.5000	-4.14754	0.000408099	0.367036	322.849
571.0000	-4.38931	0.000435439	0.373702	323.355
570.5000	-4.50058	0.000424354	0.38002	323.881
570.0000	-4.71802	0.000415453	0.386065	324.392
569.5000	-5.17996	0.000420218	0.392926	324.923
569.0000	-5.55556	0.000411473	0.399751	325.445
568.5000	-5.4832	0.000423597	0.405775	325.953
568.0000	-5.42964	0.000395551	0.411625	326.473
567.5000	-5.73394	0.000410167	0.417568	326.993
567.0000	-5.81102	0.000425965	0.423965	327.523
566.5000	-6.23337	0.000402667	0.43017	328.016
566.0000	-6.36345	0.000404144	0.436336	328.505
565.5000	-6.26879	0.00040438	0.442107	328.989
565.0000	-6.23539	0.000406581	0.447894	329.442
564.5000	-6.44719	0.000422943	0.453724	329.892
564.0000	-6.78116	0.000407232	0.459285	330.288
563.5000	-7.01621	0.000412906	0.464218	330.655
563.0000	-7.08102	0.000404261	0.469137	331.05
562.5000	-7.46919	0.00038593	0.473682	331.386
562.0000	-7.43191	0.000408798	0.478176	331.713
561.5000	-7.81391	0.000396622	0.483244	332.048
561.0000	-7.73873	0.000387304	0.487753	332.368
560.5000	-7.81286	0.000388821	0.491941	332.667
560.0000	-7.69331	0.000397875	0.496237	332.95
559.5000	-7.33428	0.000417029	0.500774	333.215
559.0000	-7.24502	0.000395257	0.50451	333.423
558.5000	-7.39262	0.000401268	0.507557	333.598
558.0000	-7.05403	0.00038772	0.510071	333.73
557.5000	-6.82403	0.000400386	0.51269	333.84
557.0000	-6.86113	0.000390662	0.515201	333.925
556.5000	-6.95191	0.000401519	0.517098	333.997
556.0000	-6.81177	0.000404068	0.51827	334.047
555.5000	-6.37227	0.000400555	0.519724	334.092
555.0000	-5.66268	0.000397264	0.520966	334.095
554.5000	-5.45555	0.000395802	0.522346	334.074
554.0000	-5.10252	0.00040782	0.522924	334.029
553.5000	-4.79563	0.00040427	0.523159	333.948
553.0000	-4.42532	0.000410321	0.523278	333.864
552.5000	-4.54648	0.000422328	0.523569	333.747
552.0000	-4.20725	0.000405524	0.523551	333.594
551.5000	-4.54964	0.000395749	0.523394	333.439
551.0000	-4.49865	0.000391945	0.522702	333.271
550.5000	-4.29706	0.000375214	0.521869	333.073
550.0000	-4.19868	0.000380681	0.521245	332.868
549.5000	-4.20646	0.000370666	0.520777	332.661
549.0000	-4.06839	0.000369505	0.519784	332.46
548.5000	-3.90488	0.000362071	0.518615	332.254
548.0000	-3.88715	0.000351603	0.518398	332.023
547.5000	-4.00399	0.000356454	0.518015	331.799
547.0000	-4.31736	0.000368562	0.517538	331.544
546.5000	-4.35478	0.000368671	0.516809	331.328
546.0000	-4.15604	0.000357944	0.515486	331.122
545.5000	-4.29261	0.000376173	0.515088	330.901
545.0000	-4.56743	0.000359217	0.514657	330.723
544.5000	-4.30231	0.000345829	0.51416	330.527
544.0000	-4.22976	0.000345303	0.513428	330.352
543.5000	-4.15024	0.000352897	0.512885	330.184
543.0000	-4.20145	0.000342886	0.512636	330.03
542.5000	-3.98829	0.000340933	0.512663	329.875
542.0000	-3.87954	0.000373926	0.51257	329.741
541.5000	-4.07603	0.000349878	0.512525	329.632
541.0000	-4.29143	0.000342267	0.512198	329.516
540.5000	-4.58323	0.000337936	0.512673	329.409
540.0000	-4.39259	0.000335612	0.513223	329.295
539.5000	-4.63746	0.000329292	0.513577	329.211
539.0000	-4.65812	0.000314066	0.513861	329.156
538.5000	-4.86401	0.000294779	0.514567	329.124
538.0000	-5.14892	0.000298602	0.515563	329.078
537.5000	-5.31727	0.000292373	0.516514	329.039
537.0000	-5.07971	0.000284969	0.51755	329.03
536.5000	-5.30047	0.000295718	0.518954	329.044
536.0000	-5.39194	0.000299753	0.52066	329.07
535.5000	-5.58204	0.000307349	0.522365	329.105
535.0000	-5.64422	0.000330199	0.52431	329.146
534.5000	-6.03854	0.000314591	0.52615	329.189
534.0000	-5.97626	0.000301987	0.528333	329.27
533.5000	-6.09644	0.000324484	0.530526	329.373
533.0000	-6.1398	0.000331923	0.532653	329.481
532.5000	-6.37321	0.000317087	0.534945	329.612
532.0000	-6.39282	0.000343773	0.537485	329.754
531.5000	-5.97006	0.000329892	0.540308	329.911
531.0000	-5.83183	0.000348018	0.543811	330.075
530.5000	-5.55789	0.000337478	0.547136	330.261
530.0000	-5.42722	0.000344626	0.550394	330.457
529.5000	-5.01648	0.000363859	0.55371	330.66
529.0000	-5.07359	0.00038353	0.557111	330.844
528.5000	-5.11897	0.0003856	0.56032	331.03
528.0000	-5.10561	0.00037192	0.563582	331.225
527.5000	-5.20997	0.000361946	0.567015	331.411
527.0000	-5.15943	0.000339132	0.571028	331.643
526.5000	-5.1345	0.000338161	0.574692	331.876
526.0000	-4.72098	0.000358105	0.578769	332.118
525.5000	-4.69734	0.000353219	0.582644	332.339
525.0000	-4.33685	0.000359457	0.586573	332.569
524.5000	-3.91425	0.000358792	0.590495	332.788
524.0000	-3.76247	0.000368329	0.594195	332.991
523.5000	-3.80294	0.000351684	0.59776	333.213
523.0000	-3.73561	0.000347754	0.601259	333.428
522.5000	-3.6148	0.00035608	0.604402	333.635
522.0000	-3.49658	0.000350816	0.607899	333.849
521.5000	-3.21872	0.000349018	0.611766	334.079
521.0000	-3.30817	0.000358111	0.615398	334.305
520.5000	-3.02368	0.000353008	0.619135	334.543
520.0000	-2.62512	0.000362262	0.62256	334.761
519.5000	-2.29579	0.000377342	0.62623	334.976
519.0000	-1.77481	0.000384482	0.629613	335.189
518.5000	-1.48273	0.000391391	0.632679	335.402
518.0000	-1.07867	0.000417812	0.63625	335.633
517.5000	-1.24652	0.000403553	0.639899	335.863
517.0000	-1.00437	0.00041521	0.643756	336.091
516.5000	-0.840465	0.000429917	0.64767	336.322
516.0000	-0.648902	0.000432159	0.651586	336.575
515.5000	-0.527763	0.000452823	0.655078	336.833
515.0000	-0.253957	0.000459115	0.658511	337.074
514.5000	-0.101248	0.000459215	0.661918	337.327
514.0000	0.178013	0.000457909	0.665151	337.552
513.5000	0.45087	0.000451255	0.668533	337.784
513.0000	0.521225	0.000422623	0.671637	338.025
512.5000	0.722408	0.000442429	0.675253	338.292
512.0000	0.71502	0.000430531	0.678702	338.537
511.5000	0.889497	0.000424217	0.681809	338.784
511.0000	0.759583	0.000415998	0.684934	339.016
510.5000	0.858545	0.000415194	0.68805	339.221
510.0000	0.713358	0.000400231	0.691059	339.418
509.5000	0.898021	0.000406437	0.693914	339.615
509.0000	1.24544	0.000424581	0.696573	339.805
508.5000	1.43302	0.000414801	0.699041	339.965
508.0000	1.71072	0.000422056	0.701479	340.088
507.5000	1.89824	0.000421306	0.703754	340.185
507.0000	1.81346	0.00040329	0.705982	340.272
506.5000	1.858	0.000409398	0.707967	340.338
506.0000	1.78403	0.000400244	0.709519	340.401
505.5000	1.86694	0.000398407	0.711034	340.458
505.0000	1.8421	0.000424759	0.712417	340.494
504.5000	2.06911	0.000434567	0.713623	340.497
504.0000	2.20736	0.000431334	0.714347	340.456
503.5000	2.38732	0.000428771	0.714738	340.386
503.0000	2.5095	0.000430426	0.714838	340.269
502.5000	2.40387	0.000430867	0.714576	340.134
502.0000	2.55732	0.000434165	0.714026	339.975
501.5000	2.29809	0.000418089	0.713413	339.791
501.0000	2.28237	0.000397621	0.71245	339.558
500.5000	2.21803	0.000386421	0.711394	339.29
500.0000	2.12438	0.000378793	0.71019	338.991
499.5000	2.29532	0.000369838	0.708146	338.629
499.0000	2.55809	0.000351535	0.705667	338.152
498.5000	2.81025	0.000358142	0.702967	337.574
498.0000	2.76105	0.000368185	0.699922	336.873
497.5000	2.80258	0.000359737	0.696769	336.002
497.0000	2.88636	0.000357032	0.694042	335.083
496.5000	3.11336	0.000352036	0.69163	334.128
496.0000	3.31743	0.000341159	0.690096	333.318
495.5000	3.42357	0.000331715	0.688825	332.663
495.0000	3.54553	0.00034188	0.687024	332.168
494.5000	3.55005	0.000355874	0.684658	331.718
494.0000	4.27486	0.000366214	0.682094	331.293
493.5000	4.47008	0.000391862	0.679403	330.855
493.0000	4.8295	0.00038919	0.676921	330.45
492.5000	5.1968	0.000392717	0.674473	330.052
492.0000	5.46043	0.000384724	0.671594	329.624
491.5000	5.60549	0.00038239	0.668859	329.255
491.0000	5.97193	0.000366687	0.666438	328.918
490.5000	6.43274	0.000381679	0.664017	328.618
490.0000	6.86943	0.00036496	0.661702	328.379
489.5000	7.32612	0.000375952	0.659564	328.217
489.0000	7.4653	0.000382829	0.657233	328.064
488.5000	8.07733	0.000394792	0.654546	327.89
488.0000	8.21955	0.000400181	0.650962	327.556
487.5000	8.30126	0.000404344	0.646945	327.023
487.0000	8.59982	0.000398507	0.64374	326.383
486.5000	9.00363	0.000404066	0.640511	325.625
486.0000	9.28121	0.000405152	0.637554	324.846
485.5000	9.46497	0.000382876	0.635693	324.068
485.0000	9.66795	0.000388344	0.634431	323.352
484.5000	9.98439	0.000404049	0.63302	322.796
484.0000	10.2067	0.000409819	0.631227	322.331
483.5000	10.3534	0.000415464	0.629503	321.957
483.0000	10.4352	0.000417012	0.627345	321.618
482.5000	10.4934	0.000427474	0.624853	321.331
482.0000	10.6258	0.000450957	0.622278	321.091
481.5000	10.5742	0.000441643	0.620009	320.879
481.0000	10.7808	0.000438817	0.617877	320.688
480.5000	11.0477	0.000427078	0.615473	320.513
480.0000	10.7663	0.000431364	0.612682	320.341
479.5000	10.7641	0.000434493	0.609873	320.176
479.0000	10.9665	0.000428897	0.605861	319.921
478.5000	11.0031	0.000428497	0.601321	319.44
478.0000	11.0212	0.000417818	0.597541	318.698
477.5000	10.918	0.000422645	0.596118	318.032
477.0000	10.9359	0.000428171	0.595205	317.59
476.5000	11.241	0.000415441	0.591954	317.174
476.0000	11.3963	0.000411733	0.587312	316.566
475.5000	11.5893	0.000404728	0.582395	315.737
475.0000	11.537	0.000400419	0.577455	314.708
474.5000	11.7359	0.000424033	0.57317	313.571
474.0000	11.739	0.000419789	0.569423	312.321
473.5000	11.6514	0.000421056	0.565273	310.866
473.0000	11.7138	0.000425402	0.560914	309.244
472.5000	11.6983	0.000431173	0.557447	307.497
472.0000	11.6094	0.000434084	0.556069	306.027
471.5000	11.8699	0.000435835	0.555274	304.867
471.0000	11.7529	0.000423492	0.554444	304.192
470.5000	11.8265	0.000432981	0.553378	303.778
470.0000	11.9023	0.000430618	0.551884	303.68
469.5000	11.9329	0.00042977	0.548476	303.685
469.0000	11.9358	0.000411271	0.541576	303.395
468.5000	11.9387	0.00040993	0.534267	302.685
468.0000	11.8049	0.000429064	0.52912	301.866
467.5000	11.7867	0.000430294	0.525554	301.168
467.0000	11.9911	0.000426508	0.523084	300.665
466.5000	11.9264	0.000406638	0.521177	300.374
466.0000	11.8592	0.000407253	0.518502	300.261
465.5000	11.8133	0.000393408	0.515371	300.344
465.0000	11.9063	0.000394373	0.511812	300.678
464.5000	11.9428	0.000387777	0.507041	301.186
464.0000	11.8173	0.000388933	0.500378	301.589
463.5000	11.8723	0.000384954	0.49254	301.686
463.0000	11.6368	0.000375677	0.485072	301.47
462.5000	11.5113	0.000366255	0.478851	301.066
462.0000	11.4539	0.000371004	0.473893	300.621
461.5000	11.4302	0.000368032	0.469476	300.249
461.0000	11.2226	0.000353444	0.465159	299.993
460.5000	11.2397	0.00035339	0.460714	299.872
460.0000	11.0575	0.000353813	0.45638	299.844
459.5000	10.7752	0.00033449	0.451496	299.851
459.0000	10.3993	0.000347158	0.445817	299.829
458.5000	10.1705	0.000339697	0.439579	299.714
458.0000	9.94452	0.000335293	0.433077	299.471
457.5000	9.85392	0.000333221	0.426406	299.014
457.0000	9.65856	0.000328302	0.420086	298.367
456.5000	9.44683	0.000332027	0.415224	297.737
456.0000	9.26633	0.000323947	0.410164	297.199
455.5000	9.0491	0.000318648	0.40359	296.544
455.0000	8.79413	0.000306658	0.397211	295.731
454.5000	8.69102	0.000312755	0.392549	294.949
454.0000	8.60983	0.000304211	0.388759	294.413
453.5000	8.53267	0.000321757	0.383916	294.074
453.0000	8.49624	0.000316381	0.378604	293.759
452.5000	8.2647	0.000311913	0.373304	293.402
452.0000	7.935	0.00030862	0.368168	293.001
451.5000	7.83108	0.000308197	0.362899	292.591
451.0000	7.733	0.000319028	0.357816	292.19
450.5000	7.61273	0.000309013	0.352619	291.762
450.0000	7.40082	0.000304613	0.347977	291.338
449.5000	7.30922	0.000307423	0.344119	291.019
449.0000	7.23442	0.000309053	0.34058	290.849
448.5000	6.82149	0.000302468	0.335919	290.719
448.0000	6.815	0.000300431	0.330693	290.478
447.5000	6.69504	0.0002916	0.326563	290.211
447.0000	6.45191	0.000285928	0.32389	290.138
446.5000	6.24221	0.000292655	0.320923	290.254
446.0000	6.17285	0.00028636	0.315605	290.282
445.5000	5.97196	0.000284093	0.30988	290.008
445.0000	5.75484	0.000272938	0.305086	289.553
444.5000	5.51593	0.000277901	0.300449	289.037
444.0000	5.50419	0.000265061	0.296183	288.528
443.5000	5.27174	0.000263032	0.291867	287.949
443.0000	4.94144	0.00027012	0.288351	287.43
442.5000	4.69995	0.000264527	0.284941	286.928
442.0000	4.67408	0.000265732	0.281683	286.512
441.5000	4.54903	0.000254797	0.277937	286.082
441.0000	4.46213	0.000259256	0.274376	285.687
440.5000	4.19182	0.000254453	0.27112	285.321
440.0000	4.19688	0.000249659	0.267676	284.943
439.5000	4.18927	0.000236969	0.264006	284.552
439.0000	4.05772	0.000243073	0.260088	284.144
438.5000	4.03468	0.000241098	0.255881	283.73
438.0000	3.89133	0.000251228	0.251576	283.328
437.5000	4.04643	0.00024147	0.247454	282.932
437.0000	3.84229	0.000232397	0.243187	282.542
436.5000	3.73644	0.000221217	0.24003	282.22
436.0000	3.78563	0.00022948	0.237005	281.926
435.5000	3.7081	0.00023933	0.23351	281.653
435.0000	3.63461	0.000224397	0.229863	281.403
434.5000	3.64147	0.000227629	0.226123	281.147
434.0000	3.46285	0.000212275	0.222596	280.877
433.5000	3.28361	0.00021482	0.219155	280.587
433.0000	3.13033	0.000206468	0.215907	280.263
432.5000	3.16365	0.000202778	0.212729	279.94
432.0000	3.18564	0.000197368	0.209166	279.588
431.5000	3.05736	0.000177445	0.205713	279.235
431.0000	2.95389	0.000175273	0.202459	278.887
430.5000	2.79435	0.000168898	0.199384	278.545
430.0000	2.54132	0.000156716	0.196714	278.224
429.5000	2.42821	0.000150576	0.193661	277.874
429.0000	2.21899	0.000157031	0.190669	277.525
428.5000	2.20037	0.000160495	0.187476	277.166
428.0000	2.00181	0.000150505	0.184064	276.812
427.5000	1.79867	0.000136483	0.181385	276.504
427.0000	1.62445	0.000124045	0.178834	276.196
426.5000	1.73891	0.000116789	0.176255	275.878
426.0000	1.65554	0.000113634	0.173479	275.523
425.5000	1.74131	0.000107459	0.170934	275.15
425.0000	1.65779	0.000102069	0.168225	274.754
424.5000	1.61957	9.62385E-005	0.165626	274.335
424.0000	1.56337	9.30909E-005	0.163236	273.918
423.5000	1.49811	8.98632E-005	0.161423	273.555
423.0000	1.38267	9.84776E-005	0.159548	273.251
422.5000	1.28453	8.93625E-005	0.157425	272.983
422.0000	1.2491	7.60816E-005	0.155072	272.723
421.5000	1.33689	7.32282E-005	0.152701	272.471
421.0000	1.4774	7.5122E-005	0.150756	272.251
420.5000	1.43475	5.60059E-005	0.148628	272.02
420.0000	1.31051	3.88763E-005	0.146674	271.788
419.5000	1.36729	4.82342E-005	0.144733	271.54
419.0000	1.35387	5.27202E-005	0.142729	271.298
418.5000	1.28146	5.11883E-005	0.140771	271.094
418.0000	1.09919	4.96919E-005	0.139119	270.895
417.5000	0.954008	4.89451E-005	0.137196	270.692
417.0000	0.918245	4.48394E-005	0.135763	270.517
416.5000	0.939584	3.67492E-005	0.134526	270.396
416.0000	0.898707	4.59816E-005	0.133191	270.328
415.5000	0.77538	4.85785E-005	0.131589	270.251
415.0000	0.660187	5.2703E-005	0.129736	270.116
414.5000	0.660772	5.5337E-005	0.128269	269.943
414.0000	0.579756	5.97952E-005	0.127157	269.759
413.5000	0.455689	7.23976E-005	0.126199	269.571
413.0000	0.18447	6.18628E-005	0.12539	269.409
412.5000	0.194186	7.67831E-005	0.124526	269.265
412.0000	0.310074	8.82481E-005	0.123897	269.152
411.5000	0.581204	9.53455E-005	0.12287	269.027
411.0000	0.640182	9.04803E-005	0.122044	268.923
410.5000	0.643394	9.5197E-005	0.121438	268.832
410.0000	0.559487	9.55608E-005	0.120841	268.741
409.5000	0.435496	9.12434E-005	0.120452	268.68
409.0000	0.535747	9.04462E-005	0.120022	268.634
408.5000	0.633111	9.74505E-005	0.119361	268.594
408.0000	0.550995	0.000100163	0.118485	268.55
407.5000	0.616837	9.33864E-005	0.117544	268.494
407.0000	0.736785	8.61487E-005	0.116755	268.426
406.5000	0.670741	8.07219E-005	0.116165	268.359
406.0000	0.741768	7.7816E-005	0.11555	268.287
405.5000	0.794506	6.89718E-005	0.114862	268.214
405.0000	0.971693	6.37404E-005	0.114175	268.119
404.5000	0.993057	7.33751E-005	0.113532	268.008
404.0000	0.748575	5.76645E-005	0.113266	267.875
403.5000	0.545461	5.84798E-005	0.112803	267.701
403.0000	0.450044	4.99937E-005	0.112824	267.527
402.5000	0.515725	5.2396E-005	0.112354	267.326
402.0000	0.532426	5.32345E-005	0.112274	267.13
401.5000	0.729766	6.2105E-005	0.112399	266.923
401.0000	0.754149	6.13163E-005	0.112354	266.739
400.5000	0.664707	6.23545E-005	0.112274	266.565
400.0000	0.705772	6.96539E-005	0.112186	266.421
399.5000	0.771647	6.56787E-005	0.11278	266.302
399.0000	0.623915	6.33103E-005	0.113385	266.217
398.5000	0.628593	5.44517E-005	0.113568	266.129
398.0000	0.593138	5.11142E-005	0.113788	266.069
397.5000	0.619402	5.16854E-005	0.113976	266.031
397.0000	0.567289	4.77592E-005	0.114537	266.022
396.5000	0.395578	4.17337E-005	0.114827	266.037
396.0000	0.563475	4.12951E-005	0.115127	266.07
395.5000	0.571066	3.15893E-005	0.115036	266.127
395.0000	0.607731	3.41183E-005	0.11517	266.218
394.5000	0.64933	3.07335E-005	0.115398	266.332
394.0000	0.7009	3.96459E-005	0.115745	266.479
393.5000	0.638957	3.17774E-005	0.115871	266.648
393.0000	0.636243	1.94905E-005	0.11577	266.824
392.5000	0.694742	3.2842E-005	0.115854	266.991
392.0000	0.805469	2.84281E-005	0.116236	267.15
391.5000	0.714159	2.80436E-005	0.116735	267.285
391.0000	0.674877	2.37006E-005	0.117	267.401
390.5000	0.831681	2.39746E-005	0.11707	267.511
390.0000	0.703013	3.05234E-005	0.117262	267.621
389.5000	0.942921	3.69516E-005	0.117706	267.715
389.0000	1.01262	3.1163E-005	0.118267	267.798
388.5000	1.00198	2.97224E-005	0.118445	267.864
388.0000	1.08224	3.30281E-005	0.118612	267.935
387.5000	1.12243	3.1335E-005	0.119219	268.013
387.0000	1.08799	3.57635E-005	0.120075	268.07
386.5000	1.15875	4.89656E-005	0.120674	268.114
386.0000	1.02703	5.27397E-005	0.121459	268.158
385.5000	0.980022	3.75254E-005	0.122241	268.198
385.0000	0.94198	3.00285E-005	0.123015	268.23
384.5000	0.88229	2.17926E-005	0.123956	268.276
384.0000	0.764538	3.04685E-005	0.124954	268.315
383.5000	0.925305	4.35221E-005	0.125679	268.353
383.0000	1.13335	4.16907E-005	0.126381	268.402
382.5000	1.19122	4.0603E-005	0.127013	268.437
382.0000	1.21342	4.73889E-005	0.128213	268.483
381.5000	1.39428	5.11966E-005	0.129476	268.525
381.0000	1.22673	7.05625E-005	0.130465	268.571
380.5000	1.2229	7.05164E-005	0.131216	268.612
380.0000	1.25234	8.04819E-005	0.132359	268.666
379.5000	1.24861	9.13432E-005	0.133431	268.711
379.0000	1.16713	8.34851E-005	0.134196	268.761
378.5000	1.21541	8.56696E-005	0.134794	268.824
378.0000	1.25469	7.21686E-005	0.135403	268.883
377.5000	1.41521	5.70347E-005	0.136162	268.94
377.0000	1.47419	7.36365E-005	0.136714	268.98
376.5000	1.518	8.67426E-005	0.137464	269.015
376.0000	1.66387	8.19261E-005	0.138	269.024
375.5000	1.56125	7.176E-005	0.138344	269.034
375.0000	1.52334	6.64982E-005	0.138867	269.05
374.5000	1.38706	5.80662E-005	0.139256	269.048
374.0000	1.45892	6.06202E-005	0.139838	269.058
373.5000	1.44261	5.88923E-005	0.140348	269.071
373.0000	1.43167	4.24042E-005	0.140548	269.076
372.5000	1.49247	3.68217E-005	0.140834	269.082
372.0000	1.54703	3.85837E-005	0.141281	269.095
371.5000	1.45608	2.995E-005	0.14163	269.109
371.0000	1.46744	1.89536E-005	0.142138	269.121
370.5000	1.47063	3.14187E-005	0.142703	269.133
370.0000	1.44214	2.85895E-005	0.142932	269.13
369.5000	1.45987	2.66451E-005	0.143315	269.146
369.0000	1.4617	3.53144E-005	0.14371	269.166
368.5000	1.40876	3.34901E-005	0.144498	269.214
368.0000	1.32895	2.30008E-005	0.145009	269.262
367.5000	1.16956	3.04939E-005	0.145697	269.321
367.0000	1.35691	2.91222E-005	0.146511	269.375
366.5000	1.33997	3.4467E-005	0.147048	269.433
366.0000	1.19308	3.87115E-005	0.147589	269.503
365.5000	1.06364	3.82791E-005	0.148016	269.565
365.0000	1.00512	3.57851E-005	0.14832	269.627
364.5000	0.864527	2.07051E-005	0.14898	269.7
364.0000	0.825073	1.9233E-005	0.149344	269.765
363.5000	0.832561	2.57585E-005	0.150031	269.831
363.0000	0.793648	2.33537E-005	0.150855	269.912
362.5000	0.736682	1.21051E-005	0.151435	269.985
362.0000	0.713147	7.88225E-006	0.152179	270.074
361.5000	0.528585	9.99939E-006	0.153079	270.162
361.0000	0.300336	9.35941E-007	0.153782	270.235
360.5000	0.0189088	-1.32401E-005	0.154253	270.307
360.0000	0.116458	-1.61991E-005	0.154801	270.377
359.5000	0.0259214	-1.94473E-005	0.155192	270.44
359.0000	-0.121915	-3.76536E-005	0.155289	270.498
358.5000	-0.237677	-2.98707E-005	0.155375	270.565
358.0000	-0.405046	-3.58032E-005	0.155424	270.626
357.5000	-0.541159	-3.44167E-005	0.15552	270.692
357.0000	-0.645388	-4.62071E-005	0.155888	270.759
356.5000	-0.693712	-3.90788E-005	0.156369	270.809
356.0000	-0.743697	-5.03842E-005	0.156575	270.866
355.5000	-0.938422	-6.35171E-005	0.15681	270.927
355.0000	-0.937426	-7.03974E-005	0.156942	270.99
354.5000	-1.0784	-6.97193E-005	0.156898	271.039
354.0000	-1.16812	-6.85105E-005	0.157151	271.105
353.5000	-1.27159	-6.4105E-005	0.157342	271.164
353.0000	-1.36193	-6.6182E-005	0.157349	271.215
352.5000	-1.45988	-5.92943E-005	0.157689	271.293
352.0000	-1.45207	-6.21217E-005	0.15789	271.357
351.5000	-1.52118	-5.89999E-005	0.158193	271.427
351.0000	-1.58749	-5.90353E-005	0.158941	271.507
350.5000	-1.65863	-6.7838E-005	0.159762	271.583
350.0000	-1.67711	-7.53831E-005	0.160676	271.664
349.5000	-1.76947	-8.7324E-005	0.161698	271.747
349.0000	-1.8496	-9.64057E-005	0.162767	271.826
348.5000	-1.99173	-9.37751E-005	0.163952	271.909
348.0000	-2.06322	-0.00010036	0.164818	271.985
347.5000	-2.14109	-8.51494E-005	0.165946	272.06
347.0000	-2.17238	-7.69848E-005	0.167213	272.144
346.5000	-2.46972	-8.31071E-005	0.168106	272.213
346.0000	-2.45419	-8.85271E-005	0.169033	272.291
345.5000	-2.537	-8.67874E-005	0.169952	272.353
345.0000	-2.59525	-9.19547E-005	0.171162	272.438
344.5000	-2.49043	-7.98301E-005	0.172405	272.525
344.0000	-2.48619	-8.90302E-005	0.173696	272.6
343.5000	-2.63505	-0.000106947	0.174744	272.677
343.0000	-2.61904	-0.000123267	0.175606	272.746
342.5000	-2.5161	-0.000117802	0.176258	272.811
342.0000	-2.57507	-0.000107591	0.177009	272.887
341.5000	-2.51718	-0.000104841	0.177803	272.957
341.0000	-2.4049	-9.06433E-005	0.178711	273.02
340.5000	-2.25846	-8.93408E-005	0.179425	273.091
340.0000	-2.2743	-9.7686E-005	0.180073	273.158
339.5000	-2.08468	-9.42823E-005	0.180664	273.243
339.0000	-2.03046	-0.000103828	0.181435	273.319
338.5000	-1.84522	-0.000100428	0.182341	273.401
338.0000	-1.71701	-9.65211E-005	0.183202	273.485
337.5000	-1.74506	-8.50599E-005	0.184044	273.574
337.0000	-1.67925	-8.26922E-005	0.184887	273.672
336.5000	-1.71892	-9.6976E-005	0.18573	273.751
336.0000	-1.6155	-0.00010481	0.186535	273.839
335.5000	-1.43164	-8.77193E-005	0.187238	273.917
335.0000	-1.42024	-7.9845E-005	0.187973	273.998
334.5000	-1.34039	-8.95186E-005	0.188759	274.092
334.0000	-1.12637	-0.000105944	0.189692	274.188
333.5000	-0.981804	-0.00011535	0.191017	274.288
333.0000	-0.872098	-0.000120603	0.191995	274.387
332.5000	-0.797256	-0.000133494	0.192686	274.488
332.0000	-0.688275	-0.000125156	0.193517	274.594
331.5000	-0.641127	-0.000128449	0.194615	274.705
331.0000	-0.594298	-0.000127344	0.195686	274.809
330.5000	-0.468659	-0.000124767	0.196496	274.911
330.0000	-0.482341	-0.000131341	0.197401	275.012
329.5000	-0.361451	-0.000127887	0.198405	275.123
329.0000	-0.154945	-0.00015822	0.199249	275.23
328.5000	-0.0989676	-0.000159002	0.200127	275.328
328.0000	0.00257181	-0.000160208	0.200783	275.417
327.5000	-0.0594706	-0.000162193	0.201457	275.489
327.0000	0.00652899	-0.000168992	0.202476	275.568
326.5000	0.129775	-0.000159594	0.203652	275.66
326.0000	-0.0271798	-0.000148723	0.20504	275.767
325.5000	-0.0482866	-0.000128488	0.206242	275.878
325.0000	-0.11543	-0.000128595	0.207134	275.991
324.5000	-0.0137063	-0.000132271	0.208272	276.112
324.0000	-0.0505976	-0.000131591	0.209587	276.234
323.5000	0.041923	-0.000137144	0.210986	276.352
323.0000	0.00575457	-0.000137741	0.212112	276.471
322.5000	-0.0993477	-0.000153794	0.213299	276.598
322.0000	-0.170035	-0.00015053	0.214358	276.727
321.5000	0.0635234	-0.000144431	0.215666	276.856
321.0000	0.10874	-0.000149385	0.217054	276.989
320.5000	0.237326	-0.000145493	0.218432	277.116
320.0000	0.220473	-0.000132405	0.21964	277.242
319.5000	0.321841	-0.000131585	0.221119	277.391
319.0000	0.376728	-0.00012641	0.222403	277.547
318.5000	0.439858	-0.00013074	0.223761	277.719
318.0000	0.515684	-0.000142209	0.224916	277.868
317.5000	0.712925	-0.000153344	0.226088	277.999
317.0000	0.710537	-0.000160063	0.2275	278.125
316.5000	0.82228	-0.000161278	0.22899	278.245
316.0000	0.986254	-0.000165333	0.230725	278.39
315.5000	1.12915	-0.000157565	0.231981	278.524
315.0000	1.1473	-0.000148852	0.233288	278.674
314.5000	1.13366	-0.000146011	0.234653	278.83
314.0000	1.28336	-0.000126853	0.236263	278.998
313.5000	1.42221	-0.000133008	0.23802	279.176
313.0000	1.59765	-0.000129887	0.239706	279.358
312.5000	1.50371	-0.000114182	0.241505	279.561
312.0000	1.58168	-0.000124602	0.243457	279.76
311.5000	1.71945	-0.000123023	0.245376	279.968
311.0000	1.81783	-0.000128306	0.247592	280.181
310.5000	1.88121	-0.00014623	0.249738	280.427
310.0000	1.7368	-0.000133657	0.251899	280.654
309.5000	1.92416	-0.000130358	0.254348	280.905
309.0000	2.01783	-0.000138845	0.257013	281.182
308.5000	2.1005	-0.000134764	0.259533	281.475
308.0000	2.16668	-0.000130256	0.262044	281.762
307.5000	2.09178	-0.000142035	0.265064	282.091
307.0000	2.08675	-0.000154563	0.268026	282.394
306.5000	2.30739	-0.000151414	0.271407	282.736
306.0000	2.58654	-0.000158435	0.27475	283.063
305.5000	2.60427	-0.000165234	0.278174	283.425
305.0000	2.67089	-0.000171537	0.281617	283.778
304.5000	2.56688	-0.000177118	0.285639	284.172
304.0000	2.63622	-0.00018233	0.28994	284.583
303.5000	2.71875	-0.000170349	0.294216	284.994
303.0000	2.77528	-0.000167517	0.298771	285.454
302.5000	2.7526	-0.00016915	0.303319	285.92
302.0000	2.83425	-0.000156406	0.308215	286.4
301.5000	2.92639	-0.000153907	0.313323	286.897
301.0000	3.02799	-0.000147848	0.318347	287.407
300.5000	2.98232	-0.000143092	0.322866	287.87
300.0000	3.00073	-0.000160225	0.328632	288.426
299.5000	2.97322	-0.000170206	0.333915	288.948
299.0000	2.95013	-0.000139294	0.33908	289.474
298.5000	2.94647	-0.000138146	0.344353	290.023
298.0000	2.93725	-0.000151154	0.349419	290.541
297.5000	2.97825	-0.000141466	0.354868	291.091
297.0000	3.03356	-0.00013532	0.36011	291.577
296.5000	2.97454	-0.000130948	0.364885	292.039
296.0000	2.99607	-0.000125458	0.369733	292.512
295.5000	2.82544	-0.00013486	0.374467	292.948
295.0000	2.83882	-0.000135264	0.378938	293.343
294.5000	2.74035	-0.000134268	0.383477	293.757
294.0000	2.82215	-0.00011667	0.387875	294.199
293.5000	2.94214	-0.000113402	0.391389	294.571
293.0000	2.78694	-9.84514E-005	0.3953	294.973
292.5000	2.78538	-0.000106242	0.399102	295.386
292.0000	2.83025	-8.82956E-005	0.402543	295.777
291.5000	3.00729	-7.97567E-005	0.405833	296.141
291.0000	3.03922	-7.17307E-005	0.409111	296.501
290.5000	3.06236	-7.85416E-005	0.412787	296.893
290.0000	2.98788	-6.90912E-005	0.416435	297.263
289.5000	2.89686	-5.78945E-005	0.419592	297.615
289.0000	2.83769	-5.37748E-005	0.422702	297.969
288.5000	2.85987	-6.03002E-005	0.426091	298.362
288.0000	2.85303	-6.12471E-005	0.42933	298.744
287.5000	3.24663	-5.81587E-005	0.432834	299.163
287.0000	3.13904	-5.45306E-005	0.436172	299.607
286.5000	3.23628	-3.19791E-005	0.439357	300.056
286.0000	3.31596	-3.55353E-005	0.442764	300.49
285.5000	3.37149	-3.93356E-005	0.446662	300.922
285.0000	3.38227	-4.0232E-005	0.45072	301.375
284.5000	3.62081	-4.36858E-005	0.454243	301.779
284.0000	3.86842	-3.51325E-005	0.45816	302.22
283.5000	3.82924	-4.06949E-005	0.462345	302.676
283.0000	3.80756	-3.32913E-005	0.466552	303.138
282.5000	3.9882	-1.81619E-005	0.471353	303.655
282.0000	4.17454	3.39552E-006	0.47586	304.177
281.5000	4.31784	6.54047E-006	0.480241	304.691
281.0000	4.37262	1.10464E-005	0.485035	305.225
280.5000	4.63107	1.11068E-005	0.48996	305.798
280.0000	4.82242	1.55611E-005	0.495273	306.406
279.5000	4.89627	2.29865E-005	0.500774	307.043
279.0000	4.93363	3.67493E-005	0.506043	307.667
278.5000	5.1808	4.06139E-005	0.512068	308.362
278.0000	5.3862	3.30251E-005	0.518987	309.109
277.5000	5.55214	3.452E-005	0.525579	309.822
277.0000	5.63298	4.56079E-005	0.532613	310.61
276.5000	5.57209	7.40356E-005	0.539691	311.42
276.0000	5.58225	7.78381E-005	0.546514	312.19
275.5000	5.5926	0.000103376	0.554631	313.076
275.0000	5.76123	0.000112831	0.563058	314.002
274.5000	6.10971	0.000113116	0.5716	314.963
274.0000	6.16006	9.85657E-005	0.580661	316.013
273.5000	6.12719	0.000105534	0.589714	317.024
273.0000	6.26573	0.000119645	0.599683	318.132
272.5000	6.18175	0.000141686	0.609865	319.277
272.0000	6.2151	0.000144606	0.620599	320.498
271.5000	6.28319	0.000155216	0.632288	321.832
271.0000	6.22336	0.000144625	0.644251	323.163
270.5000	6.13904	0.000140926	0.65698	324.563
270.0000	6.22289	0.000146502	0.669848	326.018
269.5000	6.30453	0.000160219	0.68309	327.553
269.0000	6.13026	0.000180485	0.696224	329.067
268.5000	6.16608	0.000198351	0.710888	330.745
268.0000	6.33065	0.000168319	0.726392	332.511
267.5000	5.97298	0.000168927	0.74248	334.357
267.0000	5.55841	0.000157309	0.75981	336.387
266.5000	5.3294	0.000172259	0.777516	338.491
266.0000	5.39145	0.000176724	0.794514	340.466
265.5000	4.83726	0.000164896	0.813171	342.612
265.0000	4.60613	0.000112752	0.832958	344.943
264.5000	4.375	9.86704E-005	0.852038	347.227
264.0000	3.87167	9.02434E-005	0.871549	349.574
263.5000	3.42795	9.10274E-005	0.892683	352.095
263.0000	2.85394	7.25888E-005	0.912021	354.418
262.5000	2.23552	7.31081E-005	0.933433	357.044
262.0000	1.79889	5.0757E-005	0.953784	359.598
261.5000	1.33767	9.78902E-006	0.974771	362.21
261.0000	0.606296	-3.51504E-005	0.995395	364.737
260.5000	0.0271282	-7.86202E-005	1.01743	367.47
260.0000	0.067117	-5.16436E-005	1.03988	370.284
259.5000	-0.697481	-4.09758E-005	1.06266	373.172
259.0000	-0.962509	-6.32556E-005	1.08579	376.146
258.5000	-1.09518	-7.1861E-005	1.10999	379.228
258.0000	-1.95491	-6.6867E-005	1.13497	382.422
257.5000	-2.64302	-7.26444E-005	1.15932	385.549
257.0000	-2.67318	-5.66838E-005	1.18582	388.971
256.5000	-3.01057	-2.14015E-005	1.21198	392.356
256.0000	-3.69825	-6.28334E-005	1.24074	396.074
255.5000	-3.54084	-5.69304E-005	1.27072	399.953
255.0000	-4.17631	-8.04693E-005	1.30179	404.009
254.5000	-4.13587	-7.90011E-005	1.33257	408.052
254.0000	-4.30595	-7.21033E-005	1.36451	412.263
253.5000	-4.43696	-7.50182E-005	1.40167	417.132
253.0000	-4.35649	-0.00010926	1.43628	421.729
252.5000	-4.38279	-0.000145374	1.48926	428.884
252.0000	-4.30937	-0.000180952	1.53503	435.108
251.5000	-4.93239	-0.000175523	1.57653	440.781
251.0000	-4.70988	-0.000203058	1.62006	446.734
250.5000	-5.02253	-0.000238146	1.66496	452.965
250.0000	-5.3508	-0.000275102	1.70889	459.139
249.5000	-4.87739	-0.000267532	1.75419	465.577
249.0000	-3.43181	-0.000261033	1.80366	472.671
248.5000	-3.18155	-0.000213077	1.85241	479.707
248.0000	-2.90142	-0.000248352	1.90547	487.464
247.5000	-3.83298	-0.000228024	1.95748	495.182
247.0000	-3.20589	-0.000348641	2.01399	503.69
246.5000	-2.68183	-0.000294148	2.07265	512.611
246.0000	-3.38516	-0.000407275	2.13347	521.962
245.5000	-1.54754	-0.000479787	2.19865	532.204
245.0000	-0.911762	-0.000420068	2.26605	542.96
244.5000	1.39174	-0.000368751	2.33554	554.22
244.0000	1.70027	-0.000262479	2.40672	565.982
243.5000	-0.531355	-0.000168504	2.47618	577.685
243.0000	0.721772	-7.36716E-005	2.54659	589.803
242.5000	-0.761883	-3.66046E-005	2.62517	603.609
242.0000	-2.27283	4.19507E-005	2.69379	615.905
241.5000	-2.83321	8.45936E-005	2.77011	629.851
241.0000	-2.36744	0.000252213	2.83887	642.676
240.5000	-4.5962	0.000239076	2.91368	657.001
240.0000	-5.09201	0.000334855	2.98005	669.979
239.5000	-5.43636	0.000354108	3.0546	684.882
239.0000	-2.57262	0.000281124	3.11677	697.56
238.5000	-5.48613	0.000283833	3.17908	710.557
238.0000	-7.49592	0.000357391	3.24037	723.716
237.5000	-8.3969	0.00036483	3.29205	735.113
237.0000	-10.4793	0.0004304	3.34239	746.493
236.5000	-8.64902	0.000505362	3.38848	757.191
236.0000	-10.7834	0.000381756	3.42811	766.632
235.5000	-7.26289	0.000456521	3.46841	776.612
235.0000	-6.6789	0.000508334	3.49262	782.825
234.5000	-6.41275	0.000389109	3.51565	788.909
234.0000	-6.07565	0.000355086	3.53701	794.76
233.5000	-2.75594	0.000309705	3.55722	800.54
233.0000	-0.8082	0.000277417	3.57416	805.753
232.5000	1.50552	0.000669309	3.58625	809.954
232.0000	2.3505	0.000794336	3.59587	813.965
231.5000	4.65679	0.000714797	3.60049	816.621
231.0000	5.51286	0.000851553	3.60294	819.033
230.5000	8.5118	0.00121188	3.60252	820.921
230.0000	6.4777	0.00132006	3.59973	822.303
229.5000	11.9613	0.0011877	3.59523	823.428
229.0000	13.8905	0.0012414	3.58921	824.278
228.5000	10.3658	0.00109907	3.58224	824.911
228.0000	10.0488	0.00112867	3.5747	825.338
227.5000	8.92975	0.000971998	3.56565	825.672
227.0000	7.72348	0.00101177	3.55614	825.936
226.5000	4.16663	0.00104958	3.54565	826.12
226.0000	4.1845	0.00106442	3.53569	826.254
225.5000	3.59093	0.0012432	3.52472	826.345
225.0000	4.53135	0.00124527	3.51308	826.426
224.5000	4.83625	0.00122574	3.50097	826.472
224.0000	4.73215	0.00116389	3.48898	826.529
223.5000	1.52632	0.000846008	3.47717	826.566
223.0000	2.93593	0.000644546	3.46553	826.605
222.5000	4.78515	0.000789969	3.45099	826.627
222.0000	1.08607	0.00031376	3.43775	826.676
221.5000	-0.245528	0.000511084	3.42372	826.709
221.0000	0.97228	0.000368645	3.41169	826.733
220.5000	1.73897	0.000365991	3.3995	826.747
220.0000	3.98319	0.000404815	3.3867	826.784

##### Extended Information
[Comments]
Sample name	JS187+JS190_5E-5_H2O_0-100_100EQ+4H
Comment
User
Division
Company	Labo systeme complexes hors equilibre

[Detailed Information]
Creation date	1/23/2024 4:57 PM

Data array type	Linear data array * 4
Horizontal axis	Wavelength [nm]
Vertical axis(1)	CD [mdeg]
Vertical axis(2)	LD [dOD]
Vertical axis(3)	Abs
Vertical axis(4)	HT [V]
Start	700 nm
End	220 nm
Data interval	0.5 nm
Data points	961     

[Measurement Information]
Instrument name	CD Jasco
Model name	J-1500
Serial No.	A005261638

Detector	PM-539
Detector S/N	A0052PM539
  Lock-in amp.	X mode
  HT volt	Auto

Detector	EXPML-535
Detector S/N	A0001
  Lock-in amp.	X mode
  HT volt	Auto

Measurement date	1/23/2024 4:57 PM

Overload detect	1
Photometric mode	CD, LD, Abs, HT
Measure range	700 - 220 nm
Data pitch	0.5 nm
CD scale	200 mdeg/1.0 dOD
FL scale	200 mdeg/1.0 dOD
D.I.T.	1 sec
Bandwidth	1.00 nm
Start mode	Immediately
Scanning speed	500 nm/min
Baseline correction	Baseline
Shutter control	Auto


