TITLE	JS187+JS190_5E-5_H2O_0-100_100EQDT+24H
DATA TYPE	
ORIGIN	JASCO
OWNER	
DATE	24/01/24
TIME	11:20:43
SPECTROMETER/DATA SYSTEM	
LOCALE	1033
RESOLUTION	
DELTAX	-0.5
XUNITS	NANOMETERS
YUNITS	CD [mdeg]
Y2UNITS	LD [dOD]
Y3UNITS	ABSORBANCE
Y4UNITS	HT [V]
FIRSTX	  700.0000
LASTX	  220.0000
NPOINTS	     961
FIRSTY	     3.49044
MAXY	    25.01188
MINY	   -26.24139
XYDATA
700.0000	3.49044	-0.000237246	0.0344856	307.66
699.5000	3.12162	-0.000247725	0.0336519	307.373
699.0000	3.21286	-0.000250551	0.0327483	307.033
698.5000	3.51621	-0.000235425	0.0324271	306.664
698.0000	3.67846	-0.000235781	0.0316694	306.254
697.5000	3.33904	-0.000219112	0.0305327	305.833
697.0000	3.19637	-0.000184699	0.0291364	305.369
696.5000	3.27072	-0.000181624	0.0283651	304.881
696.0000	3.11166	-0.00017322	0.0282298	304.336
695.5000	3.39274	-0.000167021	0.0281174	303.795
695.0000	3.28749	-0.000167439	0.0285156	303.304
694.5000	3.08455	-0.000169269	0.0288184	302.824
694.0000	3.09113	-0.000173507	0.0301406	302.365
693.5000	3.13362	-0.000173692	0.0318916	301.951
693.0000	3.15869	-0.000170535	0.0343297	301.601
692.5000	2.92397	-0.000164416	0.0366595	301.265
692.0000	2.81381	-0.000144654	0.0391246	300.981
691.5000	2.93235	-0.0001493	0.0418727	300.735
691.0000	3.08242	-0.000155167	0.044535	300.5
690.5000	3.06245	-0.000156098	0.0463385	300.288
690.0000	3.00207	-0.000157579	0.047801	300.093
689.5000	2.96079	-0.000160837	0.0491132	299.906
689.0000	2.89711	-0.000173333	0.0510486	299.762
688.5000	2.749	-0.000184216	0.0531057	299.71
688.0000	2.59831	-0.000176843	0.056051	299.769
687.5000	2.28411	-0.000185825	0.0594801	299.923
687.0000	2.06871	-0.000189379	0.0626171	300.128
686.5000	1.92785	-0.000196101	0.0652274	300.375
686.0000	1.83839	-0.000219447	0.0664427	300.623
685.5000	1.92268	-0.00021895	0.0666392	300.878
685.0000	1.55559	-0.000231458	0.0664258	301.131
684.5000	1.44791	-0.000228336	0.0655248	301.362
684.0000	1.70677	-0.000221251	0.0642509	301.595
683.5000	1.76463	-0.000219195	0.0633516	301.825
683.0000	1.58923	-0.000207375	0.0623836	302.062
682.5000	1.46765	-0.000218987	0.0620554	302.315
682.0000	1.69513	-0.000224846	0.0616606	302.599
681.5000	1.60548	-0.000234443	0.0617251	302.88
681.0000	1.72523	-0.000239518	0.0619794	303.191
680.5000	2.2434	-0.00022319	0.0621225	303.467
680.0000	2.19659	-0.000213789	0.0610341	303.696
679.5000	2.1632	-0.000217261	0.0590584	303.833
679.0000	2.17504	-0.000208636	0.0558202	303.897
678.5000	2.33886	-0.000204203	0.0536325	303.924
678.0000	2.68117	-0.000190358	0.0516462	303.931
677.5000	2.84041	-0.000169472	0.0504174	303.918
677.0000	2.84473	-0.000154704	0.0498757	303.897
676.5000	3.1443	-0.000155127	0.0500641	303.875
676.0000	3.01109	-0.00017328	0.0503424	303.859
675.5000	2.86659	-0.000185026	0.0505783	303.837
675.0000	2.8886	-0.00017803	0.0509501	303.814
674.5000	2.81842	-0.000163841	0.0518998	303.816
674.0000	2.70702	-0.000139396	0.0528156	303.817
673.5000	2.73853	-0.000116775	0.0539761	303.842
673.0000	2.69357	-0.000107309	0.0541543	303.868
672.5000	2.37809	-0.000128465	0.0542877	303.9
672.0000	2.61822	-0.000103676	0.0547033	303.936
671.5000	2.90679	-9.75932E-005	0.055654	303.98
671.0000	2.7683	-0.000103386	0.0567634	304.042
670.5000	2.9081	-0.000106766	0.0581092	304.109
670.0000	2.65836	-7.83485E-005	0.0590044	304.156
669.5000	2.69106	-7.23622E-005	0.0595593	304.224
669.0000	2.68934	-9.81288E-005	0.0601661	304.296
668.5000	2.67587	-0.00011916	0.0607839	304.373
668.0000	2.74211	-0.000134404	0.0612158	304.464
667.5000	2.86048	-0.000127506	0.0616384	304.572
667.0000	2.78961	-0.000138371	0.061814	304.683
666.5000	2.74244	-0.000154948	0.0620404	304.798
666.0000	2.80746	-0.000152832	0.061415	304.908
665.5000	2.73967	-0.000171478	0.061193	305.016
665.0000	2.80162	-0.000186169	0.0618647	305.133
664.5000	3.01748	-0.000173822	0.0627767	305.244
664.0000	2.74392	-0.000201871	0.0630241	305.357
663.5000	2.55784	-0.000206382	0.0621982	305.461
663.0000	2.83165	-0.000206643	0.0619263	305.537
662.5000	2.96487	-0.000173366	0.0615545	305.608
662.0000	2.88587	-0.000214972	0.0613034	305.686
661.5000	2.83335	-0.000214416	0.0614627	305.74
661.0000	2.78808	-0.000209294	0.061184	305.779
660.5000	2.81173	-0.000196066	0.0606104	305.798
660.0000	2.98896	-0.000171034	0.0603567	305.812
659.5000	2.80152	-0.000158917	0.0596213	305.813
659.0000	2.75264	-0.000163392	0.0590806	305.795
658.5000	2.79563	-0.000156678	0.0585222	305.742
658.0000	2.71677	-0.00016069	0.0584248	305.68
657.5000	2.83436	-0.000147784	0.0576982	305.594
657.0000	2.76361	-0.000131502	0.0580042	305.502
656.5000	2.83774	-0.000118787	0.057099	305.379
656.0000	3.17223	-9.73117E-005	0.0561768	305.229
655.5000	3.16408	-0.000113694	0.0565971	305.056
655.0000	3.28512	-0.000101363	0.0564174	304.877
654.5000	3.32723	-9.90352E-005	0.055621	304.689
654.0000	3.1186	-0.000112296	0.0556289	304.5
653.5000	3.17037	-9.11224E-005	0.0563682	304.321
653.0000	3.30743	-8.10421E-005	0.0574966	304.161
652.5000	3.27737	-6.30951E-005	0.0585138	304.016
652.0000	3.27466	-6.57766E-005	0.0597721	303.904
651.5000	3.04378	-4.98424E-005	0.0614021	303.809
651.0000	3.02443	-6.46108E-005	0.0635478	303.747
650.5000	3.04283	-5.01406E-005	0.0651204	303.728
650.0000	3.20087	-6.06757E-005	0.0672145	303.744
649.5000	3.24685	-4.08508E-005	0.0686956	303.777
649.0000	3.39362	-3.41246E-005	0.0703019	303.821
648.5000	3.51108	-4.21923E-005	0.0710739	303.897
648.0000	3.53555	-4.73298E-005	0.072323	304.009
647.5000	3.318	-4.62433E-005	0.0734914	304.139
647.0000	3.438	-4.62135E-005	0.0741933	304.298
646.5000	3.35401	-7.3586E-005	0.074779	304.466
646.0000	3.67946	-7.09495E-005	0.0761778	304.63
645.5000	3.91156	-6.56639E-005	0.0768182	304.795
645.0000	3.82814	-6.46829E-005	0.0762139	304.936
644.5000	3.83519	-5.84657E-005	0.0759827	305.067
644.0000	3.48734	-5.77581E-005	0.0759321	305.176
643.5000	3.68484	-8.72174E-005	0.0753766	305.249
643.0000	4.05715	-0.000105968	0.0748592	305.297
642.5000	4.23855	-9.00322E-005	0.0744075	305.323
642.0000	4.39718	-7.89798E-005	0.0741162	305.326
641.5000	4.43637	-7.27328E-005	0.0736875	305.309
641.0000	4.41854	-8.5749E-005	0.0736899	305.286
640.5000	4.347	-8.13235E-005	0.0741265	305.253
640.0000	4.24047	-6.63202E-005	0.0746531	305.195
639.5000	4.25276	-8.12486E-005	0.0755659	305.131
639.0000	4.24883	-4.33941E-005	0.0761572	305.052
638.5000	4.34579	-5.56787E-005	0.0771941	304.962
638.0000	4.29011	-4.70214E-005	0.0777717	304.882
637.5000	4.16366	-4.02605E-005	0.0780535	304.792
637.0000	4.33491	-3.72196E-005	0.0793445	304.713
636.5000	4.55532	-4.79922E-005	0.0802571	304.627
636.0000	4.844	-5.83925E-005	0.0805322	304.548
635.5000	4.97207	-2.59607E-005	0.081003	304.479
635.0000	4.83458	-4.72521E-006	0.0820081	304.424
634.5000	4.74194	-2.43201E-005	0.0829142	304.375
634.0000	4.45323	-2.85077E-005	0.083743	304.329
633.5000	4.4212	-2.69981E-005	0.0842934	304.296
633.0000	4.34902	-2.53677E-005	0.0853287	304.262
632.5000	4.18014	-4.08722E-005	0.0856808	304.225
632.0000	4.47495	-4.13468E-005	0.086103	304.194
631.5000	4.55617	-2.4666E-005	0.0867844	304.161
631.0000	4.57027	-3.39944E-005	0.0874658	304.132
630.5000	4.58973	-5.11432E-005	0.0881932	304.11
630.0000	4.38887	-2.32431E-005	0.0889306	304.08
629.5000	4.55951	-2.80936E-005	0.0897362	304.043
629.0000	4.67396	-1.77288E-005	0.0904502	304.021
628.5000	4.68746	-3.23005E-005	0.0908056	303.984
628.0000	4.5055	-1.78972E-005	0.0915264	303.955
627.5000	4.41593	-1.19187E-005	0.0926251	303.93
627.0000	4.12392	-3.16465E-005	0.0930966	303.893
626.5000	4.02693	-2.57037E-005	0.0933055	303.862
626.0000	3.86381	-2.68766E-005	0.0935603	303.827
625.5000	3.77298	-3.13632E-005	0.0944351	303.791
625.0000	3.77792	-5.85413E-005	0.0954333	303.761
624.5000	3.91556	-4.5018E-005	0.0964452	303.734
624.0000	3.81721	-2.65778E-005	0.0975741	303.74
623.5000	3.53129	-3.86631E-005	0.0986792	303.748
623.0000	3.44574	-3.63034E-005	0.0997848	303.771
622.5000	3.21946	-3.21815E-005	0.10101	303.804
622.0000	3.16658	-2.76059E-005	0.101948	303.846
621.5000	3.5589	-3.5696E-005	0.103045	303.909
621.0000	3.48951	-3.24027E-005	0.104154	303.979
620.5000	3.41542	-4.86578E-005	0.104943	304.054
620.0000	3.3298	-3.06707E-005	0.105668	304.147
619.5000	3.40237	-3.99831E-005	0.106786	304.267
619.0000	3.30657	-5.45222E-005	0.108383	304.407
618.5000	3.51915	-4.92107E-005	0.110425	304.565
618.0000	3.61827	-3.79482E-005	0.112411	304.719
617.5000	3.86455	-3.00104E-005	0.11337	304.879
617.0000	3.96847	-3.87422E-006	0.114153	305.054
616.5000	4.07269	-6.40871E-007	0.114977	305.229
616.0000	4.18418	-1.2813E-005	0.116041	305.382
615.5000	4.24658	-2.85775E-005	0.116723	305.538
615.0000	4.63393	-2.16156E-005	0.117317	305.694
614.5000	4.79104	-1.09227E-005	0.11777	305.854
614.0000	4.79248	-2.29799E-005	0.118347	306.022
613.5000	4.71593	-2.58787E-005	0.118995	306.174
613.0000	4.61063	-2.85608E-005	0.119581	306.337
612.5000	4.59393	-1.56471E-005	0.120399	306.513
612.0000	4.84508	-1.88338E-005	0.121209	306.676
611.5000	4.77742	-1.2154E-005	0.122198	306.826
611.0000	4.77867	-2.03145E-006	0.122576	306.968
610.5000	4.98045	2.24099E-006	0.122944	307.116
610.0000	5.00939	-1.16028E-005	0.123083	307.248
609.5000	4.93783	-2.44462E-005	0.123965	307.391
609.0000	4.92753	-2.36554E-005	0.124646	307.511
608.5000	4.88059	-3.35822E-005	0.125683	307.629
608.0000	5.01963	-5.15153E-006	0.126348	307.742
607.5000	4.97483	-9.42167E-006	0.126521	307.847
607.0000	5.04388	-9.23487E-006	0.127298	307.975
606.5000	5.00211	-1.31157E-005	0.128042	308.087
606.0000	5.06275	7.76865E-006	0.129496	308.199
605.5000	4.92713	2.60613E-005	0.130629	308.311
605.0000	4.81041	3.27649E-005	0.131977	308.409
604.5000	5.06512	4.63575E-005	0.132953	308.492
604.0000	5.01759	5.68273E-005	0.134291	308.583
603.5000	4.87741	5.1621E-005	0.135679	308.662
603.0000	5.02263	6.64269E-005	0.136682	308.744
602.5000	4.96325	5.96476E-005	0.138126	308.822
602.0000	5.09174	6.22137E-005	0.139671	308.893
601.5000	5.12869	9.11587E-005	0.141091	308.964
601.0000	5.00267	8.71887E-005	0.142531	309.037
600.5000	5.0248	0.000104432	0.144454	309.102
600.0000	4.85926	9.1966E-005	0.146064	309.162
599.5000	4.84887	8.49696E-005	0.148519	309.218
599.0000	5.02989	9.94227E-005	0.150599	309.272
598.5000	4.84619	0.00011742	0.153065	309.304
598.0000	4.50006	0.000101553	0.154991	309.324
597.5000	4.44897	9.44721E-005	0.15687	309.358
597.0000	4.29899	8.21552E-005	0.158936	309.381
596.5000	4.01942	5.99679E-005	0.161203	309.398
596.0000	3.9155	5.72187E-005	0.163577	309.42
595.5000	3.79645	4.78684E-005	0.16567	309.43
595.0000	3.54977	3.31546E-005	0.168171	309.441
594.5000	3.67284	2.56795E-005	0.170812	309.466
594.0000	3.63414	3.01142E-005	0.172793	309.479
593.5000	3.47248	1.4643E-005	0.175379	309.496
593.0000	3.58432	2.23871E-006	0.17841	309.522
592.5000	3.66611	1.92925E-005	0.1809	309.564
592.0000	3.72412	3.4771E-005	0.183345	309.624
591.5000	3.39655	3.01626E-005	0.185349	309.67
591.0000	3.09745	2.83729E-005	0.187879	309.721
590.5000	2.98745	1.34039E-005	0.190329	309.807
590.0000	3.14503	2.09893E-005	0.192993	309.904
589.5000	3.30474	1.31247E-005	0.195907	310.01
589.0000	3.18292	8.11151E-006	0.198863	310.125
588.5000	3.11373	1.01666E-005	0.201714	310.255
588.0000	2.89568	2.87974E-005	0.204962	310.409
587.5000	2.71274	2.84681E-005	0.208329	310.59
587.0000	2.68527	2.57703E-005	0.21169	310.808
586.5000	2.3623	1.84166E-005	0.21483	311.013
586.0000	1.8468	1.22499E-005	0.218735	311.242
585.5000	1.76005	1.4909E-005	0.222189	311.48
585.0000	1.60699	2.48305E-005	0.22559	311.729
584.5000	1.3232	4.17614E-005	0.229028	311.983
584.0000	0.760073	2.72912E-005	0.232953	312.259
583.5000	0.502916	3.21336E-005	0.237125	312.558
583.0000	0.207868	2.65108E-005	0.241794	312.883
582.5000	-0.11631	2.86658E-005	0.246269	313.23
582.0000	-0.705753	3.9968E-005	0.250791	313.577
581.5000	-1.20556	5.56184E-005	0.255568	313.955
581.0000	-1.68518	5.00263E-005	0.260809	314.353
580.5000	-1.93863	5.82038E-005	0.266172	314.769
580.0000	-2.44887	6.73516E-005	0.271154	315.167
579.5000	-2.78164	5.42367E-005	0.276267	315.593
579.0000	-3.17448	9.47971E-005	0.281553	316.026
578.5000	-3.99613	9.72233E-005	0.287302	316.462
578.0000	-4.45027	0.000108417	0.292985	316.923
577.5000	-5.06907	0.00011327	0.298455	317.422
577.0000	-5.94472	0.000125658	0.304773	317.917
576.5000	-6.4761	0.000113378	0.311577	318.455
576.0000	-7.06726	8.61183E-005	0.318217	318.983
575.5000	-7.86079	7.43065E-005	0.325272	319.539
575.0000	-8.79472	8.22608E-005	0.331434	320.063
574.5000	-9.62767	7.76081E-005	0.338483	320.644
574.0000	-10.4171	7.58484E-005	0.345597	321.204
573.5000	-11.1681	7.6087E-005	0.352757	321.78
573.0000	-11.977	6.13111E-005	0.359922	322.405
572.5000	-12.817	4.16775E-005	0.366614	322.991
572.0000	-13.7525	3.83857E-005	0.374171	323.671
571.5000	-14.6855	2.86175E-005	0.381798	324.335
571.0000	-15.8633	1.65484E-005	0.390176	325.017
570.5000	-16.6154	-9.05517E-006	0.39839	325.736
570.0000	-17.5109	-1.94931E-005	0.406175	326.427
569.5000	-18.5145	-3.72481E-005	0.414941	327.154
569.0000	-19.4699	-4.01621E-005	0.423713	327.877
568.5000	-20.5668	-4.21109E-005	0.431453	328.563
568.0000	-21.2208	-5.27671E-005	0.439011	329.261
567.5000	-22.0985	-4.25814E-005	0.446758	329.97
567.0000	-22.9097	-5.31049E-005	0.454677	330.66
566.5000	-23.4334	-9.23815E-005	0.462325	331.305
566.0000	-23.9242	-9.41081E-005	0.469861	331.938
565.5000	-24.3333	-0.000105124	0.476832	332.551
565.0000	-24.7419	-0.000128839	0.483756	333.125
564.5000	-25.3468	-0.000111163	0.490757	333.7
564.0000	-25.4925	-0.000127698	0.497315	334.203
563.5000	-25.6569	-0.000136467	0.503143	334.666
563.0000	-25.6251	-0.000110719	0.508834	335.145
562.5000	-26.0713	-9.52338E-005	0.514046	335.554
562.0000	-26.1436	-9.47134E-005	0.519002	335.933
561.5000	-26.2227	-0.000103839	0.524309	336.296
561.0000	-26.2414	-0.000122436	0.528823	336.62
560.5000	-25.7472	-0.000124078	0.532855	336.906
560.0000	-25.1614	-0.000121917	0.536937	337.17
559.5000	-24.8839	-0.000103655	0.540928	337.38
559.0000	-24.6004	-0.000112872	0.544061	337.528
558.5000	-24.3278	-0.000108491	0.546407	337.632
558.0000	-23.7022	-8.93305E-005	0.548238	337.694
557.5000	-23.2698	-9.73945E-005	0.549976	337.713
557.0000	-22.6579	-9.86873E-005	0.551609	337.707
556.5000	-22.1734	-0.000111672	0.552431	337.667
556.0000	-21.4235	-0.000132832	0.552225	337.574
555.5000	-21.1363	-0.000118155	0.552199	337.465
555.0000	-20.318	-0.000117774	0.551858	337.303
554.5000	-19.6625	-0.000151169	0.551583	337.109
554.0000	-18.7735	-0.000152429	0.550474	336.888
553.5000	-18.2578	-0.000186579	0.549238	336.653
553.0000	-17.7144	-0.000182217	0.547899	336.417
552.5000	-17.61	-0.00017628	0.546853	336.161
552.0000	-17.1008	-0.000205913	0.545478	335.865
551.5000	-16.9619	-0.000237145	0.54393	335.565
551.0000	-16.7016	-0.000234525	0.541799	335.247
550.5000	-16.2407	-0.000240599	0.539621	334.908
550.0000	-16.0203	-0.000236303	0.537764	334.575
549.5000	-15.7527	-0.000246792	0.53604	334.237
549.0000	-15.4073	-0.000239699	0.533856	333.913
548.5000	-15.0442	-0.000232921	0.531752	333.608
548.0000	-15.1223	-0.000233826	0.530464	333.266
547.5000	-15.0246	-0.000233534	0.529325	332.964
547.0000	-15.2743	-0.000270119	0.528115	332.633
546.5000	-15.1535	-0.000237652	0.526808	332.357
546.0000	-15.1038	-0.000234472	0.525218	332.122
545.5000	-14.905	-0.000215092	0.524666	331.885
545.0000	-14.8313	-0.000193196	0.52421	331.704
544.5000	-14.6629	-0.000187747	0.523787	331.515
544.0000	-14.7028	-0.000175871	0.523173	331.352
543.5000	-14.8605	-0.000154585	0.522941	331.215
543.0000	-14.6475	-0.000166098	0.523133	331.106
542.5000	-14.8238	-0.000176198	0.523822	331.018
542.0000	-14.6854	-0.000166967	0.524385	330.952
541.5000	-14.7802	-0.000167544	0.525095	330.92
541.0000	-15.2596	-0.000162822	0.525709	330.9
540.5000	-15.7121	-0.000133898	0.52719	330.896
540.0000	-15.8904	-0.000138791	0.529051	330.915
539.5000	-16.2979	-0.000134683	0.530695	330.964
539.0000	-16.4785	-0.000106684	0.532409	331.055
538.5000	-16.6101	-0.000108977	0.534619	331.178
538.0000	-16.7716	-0.000127327	0.537114	331.286
537.5000	-17.1871	-0.000134984	0.539645	331.408
537.0000	-17.2613	-0.000149624	0.5422	331.555
536.5000	-17.5762	-0.000159752	0.544986	331.711
536.0000	-18.0716	-0.000160615	0.548307	331.904
535.5000	-18.3469	-0.000140396	0.55167	332.11
535.0000	-18.6494	-0.000108221	0.555341	332.329
534.5000	-19.0042	-0.00012145	0.558669	332.525
534.0000	-19.3766	-0.000128035	0.562316	332.757
533.5000	-19.6112	-0.000130549	0.565846	333
533.0000	-19.4974	-0.000137586	0.569331	333.249
532.5000	-19.3804	-0.000148095	0.572992	333.522
532.0000	-19.5533	-0.000139729	0.576838	333.801
531.5000	-19.7169	-0.000162101	0.580944	334.091
531.0000	-19.4619	-0.000158719	0.585579	334.374
530.5000	-19.169	-0.000155359	0.589822	334.658
530.0000	-19.4713	-0.000168317	0.594122	334.964
529.5000	-19.4626	-0.000159494	0.598292	335.258
529.0000	-19.2949	-0.00017192	0.602348	335.512
528.5000	-19.1979	-0.000154335	0.606217	335.769
528.0000	-18.6417	-0.000169635	0.61009	336.03
527.5000	-18.3438	-0.000180219	0.614	336.268
527.0000	-18.0071	-0.000209275	0.618299	336.532
526.5000	-17.719	-0.000245222	0.622097	336.781
526.0000	-17.1765	-0.000228409	0.626245	337.034
525.5000	-16.6184	-0.00022873	0.630198	337.266
525.0000	-16.0338	-0.000215158	0.634003	337.486
524.5000	-15.7323	-0.000212796	0.637542	337.668
524.0000	-15.0635	-0.000230722	0.640753	337.822
523.5000	-14.4572	-0.000241077	0.643716	337.984
523.0000	-13.9914	-0.000228446	0.646473	338.124
522.5000	-13.4952	-0.000228682	0.648937	338.262
522.0000	-12.8272	-0.000241358	0.651561	338.388
521.5000	-12.3992	-0.000238912	0.654249	338.497
521.0000	-11.8291	-0.000235803	0.656645	338.596
520.5000	-11.3011	-0.0002079	0.659096	338.702
520.0000	-10.5778	-0.000201704	0.661048	338.768
519.5000	-10.1364	-0.00019345	0.663112	338.817
519.0000	-9.36214	-0.000179008	0.66494	338.869
518.5000	-8.93569	-0.000178497	0.666295	338.906
518.0000	-8.16824	-0.000174563	0.667904	338.933
517.5000	-7.84149	-0.000208246	0.669649	338.965
517.0000	-7.02859	-0.000202754	0.671455	338.981
516.5000	-6.66432	-0.000212855	0.673356	339.002
516.0000	-5.97577	-0.000213953	0.675172	339.037
515.5000	-5.58778	-0.00020293	0.676622	339.082
515.0000	-4.95483	-0.000211524	0.677897	339.099
514.5000	-4.45219	-0.000225921	0.679286	339.141
514.0000	-4.00904	-0.000234525	0.680433	339.149
513.5000	-3.47931	-0.000233983	0.681688	339.159
513.0000	-2.60546	-0.000232781	0.682687	339.18
512.5000	-1.896	-0.000232071	0.684143	339.222
512.0000	-1.63043	-0.00025046	0.685579	339.257
511.5000	-1.23777	-0.000270487	0.686644	339.29
511.0000	-0.946374	-0.000265483	0.687831	339.32
510.5000	-0.601211	-0.000269032	0.689234	339.345
510.0000	-0.50647	-0.00027799	0.690556	339.366
509.5000	0.163496	-0.000285055	0.691669	339.38
509.0000	0.603651	-0.000266597	0.692593	339.388
508.5000	1.06969	-0.000284194	0.693318	339.365
508.0000	1.45465	-0.000274494	0.694165	339.321
507.5000	1.73027	-0.000293894	0.69516	339.284
507.0000	1.9887	-0.000307164	0.69632	339.259
506.5000	2.09134	-0.000321	0.69744	339.233
506.0000	2.39498	-0.000297491	0.698109	339.204
505.5000	2.65905	-0.000310299	0.698719	339.166
505.0000	3.0134	-0.000337152	0.699421	339.13
504.5000	3.2812	-0.000369381	0.700094	339.078
504.0000	3.72151	-0.000365595	0.700519	339.006
503.5000	4.43571	-0.000369315	0.700836	338.928
503.0000	4.52429	-0.000365759	0.701005	338.818
502.5000	4.71509	-0.000375325	0.700993	338.71
502.0000	5.29011	-0.000380546	0.70071	338.58
501.5000	5.21749	-0.000389341	0.700562	338.445
501.0000	5.66795	-0.000391644	0.700398	338.297
500.5000	6.18599	-0.000395319	0.700251	338.125
500.0000	6.61914	-0.000392813	0.699882	337.913
499.5000	7.03268	-0.000411314	0.698668	337.639
499.0000	7.63405	-0.000392994	0.697068	337.255
498.5000	7.88884	-0.000386746	0.695255	336.77
498.0000	8.11505	-0.000401572	0.693142	336.168
497.5000	8.45293	-0.000405926	0.691445	335.449
497.0000	8.84599	-0.000397203	0.690245	334.69
496.5000	9.41193	-0.000363462	0.689654	333.923
496.0000	9.82896	-0.000349628	0.690205	333.329
495.5000	10.271	-0.000334865	0.690884	332.876
495.0000	10.59	-0.000358298	0.690682	332.544
494.5000	11.2798	-0.000342286	0.689727	332.24
494.0000	11.9705	-0.000349562	0.688571	331.959
493.5000	12.4972	-0.000343392	0.6873	331.666
493.0000	13.1289	-0.000335316	0.686142	331.397
492.5000	13.3595	-0.00030657	0.68486	331.117
492.0000	14.1013	-0.000331591	0.683583	330.852
491.5000	14.466	-0.000325853	0.682155	330.616
491.0000	14.9663	-0.000335482	0.680955	330.403
490.5000	15.6723	-0.000340276	0.67973	330.224
490.0000	16.4395	-0.000344492	0.678504	330.095
489.5000	17.4038	-0.000346476	0.677106	330.009
489.0000	17.9406	-0.000351695	0.675496	329.928
488.5000	18.5774	-0.000331952	0.673081	329.782
488.0000	19.2011	-0.000355733	0.669439	329.44
487.5000	19.6038	-0.000378693	0.665261	328.888
487.0000	19.932	-0.000382035	0.662068	328.247
486.5000	20.2479	-0.000368503	0.658869	327.488
486.0000	20.4812	-0.000368803	0.655979	326.712
485.5000	20.9373	-0.000383446	0.654379	325.957
485.0000	21.4423	-0.000367693	0.653739	325.3
484.5000	21.7557	-0.000392745	0.65272	324.781
484.0000	21.7731	-0.000390098	0.650926	324.313
483.5000	22.0858	-0.000391401	0.649088	323.925
483.0000	22.4223	-0.000389883	0.646715	323.564
482.5000	22.8869	-0.000395324	0.644198	323.272
482.0000	23.2188	-0.000385398	0.641379	323.007
481.5000	23.1066	-0.000406928	0.638704	322.753
481.0000	23.33	-0.000390382	0.636253	322.529
480.5000	23.2912	-0.00037408	0.63356	322.325
480.0000	23.3847	-0.000389756	0.630584	322.133
479.5000	23.2541	-0.000396302	0.627566	321.946
479.0000	23.4286	-0.000394305	0.622807	321.615
478.5000	23.6706	-0.000391279	0.617403	321.045
478.0000	23.7894	-0.000408398	0.613129	320.251
477.5000	23.8101	-0.000419326	0.611943	319.606
477.0000	23.9962	-0.000383173	0.610987	319.157
476.5000	24.2581	-0.000412393	0.606952	318.663
476.0000	24.5946	-0.0004095	0.60123	317.945
475.5000	24.7448	-0.000417397	0.59542	317.025
475.0000	24.8081	-0.000425581	0.58964	315.909
474.5000	25.0119	-0.000415513	0.58493	314.727
474.0000	24.744	-0.000411035	0.580641	313.419
473.5000	24.5951	-0.000420498	0.575932	311.906
473.0000	24.7005	-0.000410464	0.571167	310.239
472.5000	24.5132	-0.000433309	0.567823	308.5
472.0000	24.4367	-0.00043413	0.566959	307.075
471.5000	24.5778	-0.000419771	0.566676	305.961
471.0000	24.5719	-0.000434145	0.56648	305.345
470.5000	24.4879	-0.000442966	0.566096	304.995
470.0000	24.3812	-0.000443074	0.565075	304.942
469.5000	24.2813	-0.000442747	0.561503	304.931
469.0000	23.8455	-0.000456818	0.553841	304.568
468.5000	23.6563	-0.000462358	0.546176	303.821
468.0000	23.4609	-0.000456599	0.541211	303.017
467.5000	23.1705	-0.000459254	0.538168	302.366
467.0000	23.0553	-0.000447465	0.536453	301.934
466.5000	22.8382	-0.000445721	0.535166	301.7
466.0000	22.5874	-0.000458215	0.533095	301.644
465.5000	22.7377	-0.000456514	0.530739	301.801
465.0000	22.5385	-0.000456248	0.52789	302.204
464.5000	22.4297	-0.000467157	0.523434	302.744
464.0000	21.9915	-0.00044796	0.516561	303.129
463.5000	22.0259	-0.000451081	0.508088	303.166
463.0000	21.8564	-0.000435442	0.500172	302.906
462.5000	21.5849	-0.00044112	0.493944	302.5
462.0000	21.2993	-0.000432378	0.489255	302.079
461.5000	21.1611	-0.000426005	0.485141	301.734
461.0000	21.2366	-0.000427582	0.481234	301.516
460.5000	21.0912	-0.000417033	0.477063	301.421
460.0000	20.8199	-0.000406148	0.472975	301.415
459.5000	20.5041	-0.000415874	0.468359	301.448
459.0000	20.5536	-0.000410495	0.462646	301.423
458.5000	20.3969	-0.000419099	0.456277	301.294
458.0000	20.1579	-0.000408131	0.449449	301.02
457.5000	19.9269	-0.000413538	0.442347	300.52
457.0000	19.4839	-0.000399822	0.43614	299.881
456.5000	19.1902	-0.00038992	0.431564	299.275
456.0000	18.9879	-0.000380058	0.426562	298.74
455.5000	18.7015	-0.000399292	0.41941	298.028
455.0000	18.3126	-0.000409102	0.412712	297.182
454.5000	17.8727	-0.00040837	0.408325	296.422
454.0000	17.4933	-0.000397231	0.40493	295.921
453.5000	17.3738	-0.000387213	0.400024	295.575
453.0000	17.0684	-0.000392256	0.394375	295.227
452.5000	16.6904	-0.000380025	0.388947	294.857
452.0000	16.4448	-0.000387801	0.383785	294.451
451.5000	16.2068	-0.000392285	0.378142	294.005
451.0000	15.8867	-0.000384092	0.372707	293.569
450.5000	15.3501	-0.000377309	0.367153	293.107
450.0000	15.0605	-0.000381779	0.362305	292.662
449.5000	14.7616	-0.000375939	0.35845	292.342
449.0000	14.4804	-0.000375477	0.354818	292.163
448.5000	14.1328	-0.000388501	0.349647	291.986
448.0000	13.8303	-0.000385358	0.343968	291.702
447.5000	13.5539	-0.000381834	0.33984	291.434
447.0000	13.2131	-0.000382627	0.337612	291.402
446.5000	12.9863	-0.000371782	0.334534	291.508
446.0000	12.7548	-0.000382073	0.328268	291.448
445.5000	12.4383	-0.000387546	0.321811	291.106
445.0000	11.8848	-0.000378862	0.316652	290.616
444.5000	11.5083	-0.000383488	0.311762	290.075
444.0000	11.3138	-0.0003744	0.307001	289.52
443.5000	10.9469	-0.000382668	0.302408	288.913
443.0000	10.7392	-0.000367643	0.298811	288.385
442.5000	10.5204	-0.000358461	0.295493	287.891
442.0000	10.4473	-0.0003458	0.292256	287.476
441.5000	10.2537	-0.000354082	0.288553	287.049
441.0000	9.90052	-0.000346536	0.285041	286.656
440.5000	9.49684	-0.000342056	0.281627	286.275
440.0000	9.30107	-0.000340667	0.278003	285.88
439.5000	9.31826	-0.000331871	0.274229	285.478
439.0000	9.11709	-0.000324112	0.270243	285.062
438.5000	8.85799	-0.000323267	0.265991	284.644
438.0000	8.60154	-0.000316432	0.261531	284.226
437.5000	8.48852	-0.000306109	0.257512	283.839
437.0000	8.65701	-0.000300511	0.253279	283.451
436.5000	8.53438	-0.000292569	0.2501	283.126
436.0000	8.50429	-0.000285161	0.247156	282.838
435.5000	8.3768	-0.000287449	0.243957	282.591
435.0000	8.05782	-0.000270112	0.240229	282.333
434.5000	7.85317	-0.000269257	0.236427	282.071
434.0000	7.7102	-0.000281274	0.232749	281.787
433.5000	7.47062	-0.000272732	0.229185	281.485
433.0000	7.38372	-0.000270798	0.22579	281.147
432.5000	7.36554	-0.000266796	0.222635	280.825
432.0000	7.28693	-0.000264683	0.219141	280.478
431.5000	7.09527	-0.000276778	0.215677	280.124
431.0000	7.05169	-0.000277261	0.212481	279.78
430.5000	6.91435	-0.000258564	0.209541	279.448
430.0000	6.60575	-0.000252222	0.207027	279.141
429.5000	6.54961	-0.000244839	0.204169	278.808
429.0000	6.2791	-0.000242811	0.201323	278.47
428.5000	6.08479	-0.000242266	0.198297	278.125
428.0000	6.00965	-0.000240207	0.195043	277.784
427.5000	5.70816	-0.000248121	0.192431	277.481
427.0000	5.64009	-0.000217285	0.189836	277.169
426.5000	5.56629	-0.000221109	0.18749	276.87
426.0000	5.48513	-0.000213494	0.184841	276.525
425.5000	5.46963	-0.000213539	0.18236	276.157
425.0000	5.30029	-0.000223083	0.179864	275.778
424.5000	5.21442	-0.00021882	0.177327	275.363
424.0000	5.17809	-0.000213861	0.175065	274.956
423.5000	5.14639	-0.00021215	0.173525	274.616
423.0000	5.00941	-0.000198872	0.171876	274.331
422.5000	4.96974	-0.000211278	0.170071	274.09
422.0000	4.88372	-0.000217809	0.167858	273.842
421.5000	4.898	-0.000220297	0.165682	273.605
421.0000	4.93395	-0.000226648	0.163802	273.391
420.5000	4.87283	-0.000227708	0.161863	273.175
420.0000	4.7113	-0.000227509	0.160104	272.96
419.5000	4.62904	-0.000227356	0.158332	272.726
419.0000	4.60303	-0.000236911	0.156581	272.504
418.5000	4.57592	-0.000245826	0.154722	272.309
418.0000	4.43221	-0.000243311	0.153223	272.123
417.5000	4.42101	-0.000235248	0.15152	271.937
417.0000	4.06496	-0.000239428	0.150194	271.772
416.5000	4.03316	-0.000229637	0.149089	271.661
416.0000	3.84031	-0.000245481	0.14792	271.607
415.5000	3.77935	-0.000235982	0.146364	271.534
415.0000	3.67454	-0.000232644	0.144563	271.403
414.5000	3.58033	-0.000235812	0.143126	271.232
414.0000	3.4145	-0.000218229	0.142085	271.053
413.5000	3.36216	-0.000200848	0.141196	270.87
413.0000	3.14109	-0.00021527	0.14044	270.712
412.5000	2.94564	-0.000208126	0.139731	270.582
412.0000	3.01727	-0.000203313	0.139015	270.461
411.5000	3.00083	-0.000192194	0.138037	270.339
411.0000	2.92928	-0.000193392	0.137188	270.233
410.5000	2.76018	-0.000190418	0.136745	270.155
410.0000	2.67915	-0.000193042	0.136273	270.075
409.5000	2.69562	-0.000198032	0.135817	270.008
409.0000	2.59156	-0.000201814	0.135332	269.957
408.5000	2.72233	-0.000196377	0.134824	269.93
408.0000	2.6724	-0.000193234	0.134064	269.896
407.5000	2.88566	-0.000182581	0.133106	269.839
407.0000	2.76601	-0.000192173	0.132498	269.785
406.5000	2.63627	-0.000202118	0.132025	269.729
406.0000	2.58616	-0.000192892	0.13148	269.662
405.5000	2.67776	-0.000199815	0.130733	269.584
405.0000	2.58259	-0.000206118	0.130146	269.497
404.5000	2.54145	-0.000197678	0.129597	269.393
404.0000	2.44579	-0.000198843	0.129357	269.262
403.5000	2.40396	-0.000193013	0.129063	269.103
403.0000	2.42232	-0.000195872	0.129126	268.931
402.5000	2.5309	-0.000194508	0.128813	268.742
402.0000	2.42935	-0.000196212	0.128924	268.563
401.5000	2.43715	-0.000199034	0.129245	268.371
401.0000	2.30523	-0.000198173	0.129436	268.207
400.5000	2.32572	-0.00018705	0.129614	268.054
400.0000	2.25597	-0.000182457	0.12972	267.927
399.5000	2.24142	-0.000186019	0.130506	267.823
399.0000	2.24024	-0.000181387	0.131154	267.742
398.5000	2.22262	-0.000192991	0.131517	267.668
398.0000	2.19637	-0.000192867	0.131933	267.625
397.5000	2.16367	-0.000197076	0.132311	267.603
397.0000	2.24127	-0.0001988	0.13294	267.6
396.5000	2.30504	-0.00019678	0.133376	267.627
396.0000	2.46567	-0.000193753	0.133882	267.679
395.5000	2.37715	-0.000204429	0.133942	267.749
395.0000	2.30139	-0.000203433	0.134252	267.856
394.5000	2.27768	-0.00020468	0.134783	267.996
394.0000	2.27864	-0.000194792	0.135245	268.154
393.5000	2.28672	-0.000189201	0.135465	268.332
393.0000	2.26942	-0.00019836	0.135575	268.527
392.5000	2.33958	-0.000189402	0.135765	268.704
392.0000	2.40917	-0.000198436	0.136258	268.873
391.5000	2.37	-0.000192516	0.136781	269.011
391.0000	2.26213	-0.000200638	0.137136	269.135
390.5000	2.14349	-0.000204652	0.137243	269.249
390.0000	2.14948	-0.000192261	0.137507	269.366
389.5000	2.03997	-0.000189134	0.138116	269.475
389.0000	1.96277	-0.000195658	0.13882	269.571
388.5000	1.90351	-0.000191353	0.139359	269.669
388.0000	1.92218	-0.000193304	0.139647	269.751
387.5000	1.89366	-0.000199922	0.140204	269.825
387.0000	1.87464	-0.000194579	0.141365	269.908
386.5000	1.88052	-0.000204434	0.142214	269.974
386.0000	1.82626	-0.000210332	0.143088	270.026
385.5000	1.73869	-0.000222992	0.144081	270.084
385.0000	1.80882	-0.000224212	0.144954	270.126
384.5000	1.6937	-0.000235092	0.145828	270.166
384.0000	1.57642	-0.000233279	0.146813	270.204
383.5000	1.59891	-0.000234386	0.147447	270.234
383.0000	1.72377	-0.000238719	0.148182	270.286
382.5000	1.90376	-0.00025674	0.148993	270.337
382.0000	2.01309	-0.000250539	0.15041	270.402
381.5000	1.91477	-0.000259468	0.151711	270.448
381.0000	1.99815	-0.000241271	0.152765	270.499
380.5000	2.10751	-0.000256101	0.153627	270.55
380.0000	2.11653	-0.000257949	0.154783	270.606
379.5000	2.00806	-0.000248514	0.156019	270.666
379.0000	1.91393	-0.000259588	0.157006	270.735
378.5000	1.98193	-0.00026313	0.157536	270.792
378.0000	1.98039	-0.000264285	0.158266	270.862
377.5000	2.08948	-0.000280477	0.158949	270.913
377.0000	2.20377	-0.000276873	0.159474	270.951
376.5000	2.19291	-0.000271589	0.160268	270.99
376.0000	2.3253	-0.000277345	0.161121	271.027
375.5000	2.43096	-0.000289081	0.16175	271.061
375.0000	2.29524	-0.000295492	0.162542	271.101
374.5000	2.1274	-0.000307054	0.163193	271.121
374.0000	2.09083	-0.000296039	0.163893	271.142
373.5000	2.0018	-0.000312705	0.164375	271.152
373.0000	2.00558	-0.000326325	0.164748	271.173
372.5000	2.03878	-0.000330797	0.165235	271.196
372.0000	2.17744	-0.000332237	0.165743	271.215
371.5000	2.14828	-0.000330508	0.166071	271.226
371.0000	2.20387	-0.000350094	0.16669	271.248
370.5000	2.20077	-0.000343206	0.167426	271.275
370.0000	2.03917	-0.000346881	0.168028	271.305
369.5000	2.06639	-0.000352079	0.168566	271.335
369.0000	2.13847	-0.00034785	0.169223	271.377
368.5000	1.94875	-0.000361997	0.170122	271.435
368.0000	1.94842	-0.000360327	0.170763	271.495
367.5000	1.90226	-0.000355008	0.171595	271.566
367.0000	2.05158	-0.000355832	0.172601	271.638
366.5000	2.19211	-0.000340929	0.173337	271.714
366.0000	2.16396	-0.000340994	0.174093	271.803
365.5000	2.18354	-0.000341751	0.174668	271.878
365.0000	2.30376	-0.000335207	0.175067	271.949
364.5000	2.38236	-0.00032967	0.175711	272.022
364.0000	2.34503	-0.000339026	0.176384	272.114
363.5000	2.31208	-0.000348219	0.177269	272.197
363.0000	2.42728	-0.000344199	0.17825	272.293
362.5000	2.24942	-0.000350885	0.178973	272.378
362.0000	2.31682	-0.000361198	0.17972	272.469
361.5000	2.36172	-0.0003506	0.180605	272.556
361.0000	2.15696	-0.000353952	0.181269	272.626
360.5000	2.05483	-0.000359635	0.181818	272.705
360.0000	2.1361	-0.000356493	0.182396	272.778
359.5000	2.20049	-0.000369077	0.182927	272.854
359.0000	2.1157	-0.00037971	0.183282	272.935
358.5000	2.04629	-0.000374749	0.183479	273.012
358.0000	1.89313	-0.000390046	0.18366	273.085
357.5000	1.99618	-0.00038478	0.183792	273.155
357.0000	1.86672	-0.000400282	0.184301	273.235
356.5000	1.82293	-0.000403525	0.185091	273.312
356.0000	1.82652	-0.000406529	0.185461	273.384
355.5000	1.7701	-0.000409742	0.185801	273.455
355.0000	1.77978	-0.000414022	0.186093	273.532
354.5000	1.69408	-0.000413324	0.186251	273.6
354.0000	1.77865	-0.00042596	0.186586	273.673
353.5000	1.76473	-0.000416777	0.186883	273.742
353.0000	1.58021	-0.000422693	0.187338	273.832
352.5000	1.72592	-0.000427844	0.187981	273.937
352.0000	1.81752	-0.0004324	0.188545	274.034
351.5000	1.78256	-0.000427129	0.188956	274.114
351.0000	1.76831	-0.000428352	0.189677	274.193
350.5000	1.97388	-0.000421909	0.190441	274.264
350.0000	1.86043	-0.000422807	0.191374	274.347
349.5000	1.94945	-0.000433715	0.192324	274.424
349.0000	1.79663	-0.000431607	0.193452	274.51
348.5000	1.78018	-0.000428448	0.194678	274.596
348.0000	1.80947	-0.00043089	0.195481	274.668
347.5000	1.60663	-0.000439565	0.196533	274.737
347.0000	1.56594	-0.000435779	0.197651	274.808
346.5000	1.40138	-0.00043935	0.198665	274.888
346.0000	1.45723	-0.000439478	0.199533	274.962
345.5000	1.47791	-0.00043434	0.200657	275.042
345.0000	1.59004	-0.000439112	0.201696	275.113
344.5000	1.71928	-0.000447728	0.202688	275.178
344.0000	1.74526	-0.000455212	0.203867	275.244
343.5000	1.5542	-0.000465819	0.204856	275.316
343.0000	1.63071	-0.000477683	0.205778	275.392
342.5000	1.59487	-0.00046869	0.206542	275.467
342.0000	1.65004	-0.000472559	0.207392	275.552
341.5000	1.65992	-0.000467146	0.208286	275.632
341.0000	1.81314	-0.000459396	0.209368	275.711
340.5000	1.94373	-0.000480066	0.21023	275.795
340.0000	1.99508	-0.000483116	0.211189	275.89
339.5000	2.1069	-0.000492652	0.211964	275.992
339.0000	2.16064	-0.000492893	0.212811	276.076
338.5000	2.28125	-0.000498963	0.213818	276.167
338.0000	2.43818	-0.000488784	0.21464	276.248
337.5000	2.45422	-0.000490379	0.215522	276.341
337.0000	2.47936	-0.000497479	0.216314	276.436
336.5000	2.41414	-0.00049776	0.217281	276.527
336.0000	2.60075	-0.000502996	0.218124	276.619
335.5000	2.7515	-0.000495602	0.218903	276.704
335.0000	2.66181	-0.000513624	0.219724	276.793
334.5000	2.67717	-0.000521765	0.220658	276.901
334.0000	2.84737	-0.000555328	0.221676	277.005
333.5000	3.032	-0.00056192	0.223028	277.109
333.0000	3.04911	-0.000568513	0.224045	277.213
332.5000	3.03409	-0.000584356	0.224877	277.327
332.0000	3.09906	-0.000576107	0.22562	277.426
331.5000	3.22016	-0.000584933	0.226569	277.524
331.0000	3.45239	-0.0005843	0.227725	277.637
330.5000	3.49905	-0.00059268	0.228717	277.755
330.0000	3.32667	-0.000607694	0.229844	277.878
329.5000	3.44868	-0.000597791	0.231075	278.01
329.0000	3.62204	-0.000636093	0.232162	278.139
328.5000	3.66611	-0.000654578	0.233258	278.258
328.0000	3.66699	-0.000658213	0.234098	278.363
327.5000	3.54709	-0.000664914	0.23523	278.476
327.0000	3.63483	-0.00068077	0.236546	278.583
326.5000	3.89275	-0.000655406	0.238139	278.712
326.0000	3.67464	-0.000663532	0.239745	278.84
325.5000	3.66159	-0.000654329	0.241279	278.981
325.0000	3.54505	-0.000664701	0.24239	279.115
324.5000	3.73094	-0.000686255	0.243732	279.256
324.0000	3.80528	-0.000705634	0.24542	279.411
323.5000	3.79193	-0.000709625	0.247183	279.564
323.0000	3.61998	-0.000726542	0.248775	279.725
322.5000	3.39678	-0.000746767	0.250221	279.877
322.0000	3.34343	-0.000746605	0.251604	280.035
321.5000	3.52628	-0.000745789	0.253222	280.193
321.0000	3.36938	-0.000772642	0.255017	280.365
320.5000	3.46469	-0.000764847	0.256751	280.524
320.0000	3.59011	-0.000762227	0.258313	280.683
319.5000	3.72714	-0.000777786	0.259967	280.85
319.0000	3.69177	-0.000767076	0.261633	281.041
318.5000	3.75686	-0.000786996	0.26326	281.239
318.0000	3.70553	-0.000808202	0.264612	281.407
317.5000	3.96964	-0.000809746	0.265905	281.55
317.0000	3.93963	-0.000823392	0.267573	281.701
316.5000	4.02403	-0.000825528	0.26942	281.854
316.0000	3.99893	-0.000824067	0.271372	282.02
315.5000	4.10095	-0.000816843	0.272897	282.18
315.0000	4.24855	-0.000815155	0.274672	282.374
314.5000	4.44578	-0.000814223	0.276219	282.548
314.0000	4.63717	-0.000803049	0.277994	282.732
313.5000	4.74619	-0.00081458	0.279735	282.911
313.0000	4.96827	-0.000820044	0.281585	283.11
312.5000	5.0001	-0.000821407	0.283349	283.312
312.0000	5.00559	-0.000828313	0.285212	283.505
311.5000	4.9971	-0.000819132	0.287118	283.714
311.0000	5.03641	-0.000829037	0.289358	283.931
310.5000	4.99423	-0.000842452	0.291218	284.155
310.0000	5.02367	-0.00083951	0.293358	284.383
309.5000	5.09032	-0.000844468	0.295754	284.631
309.0000	5.1933	-0.000849873	0.298412	284.911
308.5000	5.44525	-0.000860533	0.300799	285.195
308.0000	5.42849	-0.000867141	0.303006	285.458
307.5000	5.51378	-0.000881346	0.305641	285.755
307.0000	5.40757	-0.000878603	0.308282	286.032
306.5000	5.51501	-0.000871983	0.31122	286.338
306.0000	5.82582	-0.000878704	0.314234	286.638
305.5000	5.7994	-0.000902211	0.317477	286.988
305.0000	5.92471	-0.000899876	0.320657	287.32
304.5000	5.77437	-0.000896155	0.32441	287.693
304.0000	6.04821	-0.000895676	0.328329	288.074
303.5000	5.95151	-0.000894611	0.332393	288.47
303.0000	5.86936	-0.000917631	0.336551	288.898
302.5000	6.01889	-0.000917525	0.34079	289.34
302.0000	6.0364	-0.000925348	0.345465	289.804
301.5000	6.13768	-0.000928132	0.350267	290.278
301.0000	6.36919	-0.000923405	0.355065	290.773
300.5000	6.31965	-0.000917677	0.359319	291.216
300.0000	6.07503	-0.000945711	0.364674	291.739
299.5000	6.1236	-0.000954966	0.369821	292.254
299.0000	6.14327	-0.000951864	0.374814	292.769
298.5000	6.30584	-0.000975561	0.379851	293.301
298.0000	6.36709	-0.000982955	0.384746	293.808
297.5000	6.29639	-0.000982552	0.389878	294.333
297.0000	6.25974	-0.000988628	0.394753	294.79
296.5000	6.2406	-0.000993308	0.399311	295.236
296.0000	6.31148	-0.000992849	0.403639	295.665
295.5000	6.36357	-0.000999752	0.407982	296.068
295.0000	6.38457	-0.00100568	0.412077	296.432
294.5000	6.45875	-0.000990478	0.416256	296.815
294.0000	6.4439	-0.000986509	0.420237	297.222
293.5000	6.47235	-0.000975799	0.423315	297.556
293.0000	6.53356	-0.000960289	0.426744	297.916
292.5000	6.39844	-0.000957795	0.429853	298.268
292.0000	6.62159	-0.000931332	0.432594	298.595
291.5000	6.5546	-0.000922587	0.435413	298.918
291.0000	6.51755	-0.000901911	0.438167	299.231
290.5000	6.33428	-0.000887175	0.441073	299.554
290.0000	6.22227	-0.000850152	0.443973	299.856
289.5000	5.98995	-0.000835712	0.446313	300.133
289.0000	5.92257	-0.000822145	0.448731	300.424
288.5000	5.9798	-0.000811499	0.451286	300.741
288.0000	5.85952	-0.000787605	0.453923	301.068
287.5000	5.91945	-0.000758977	0.456613	301.413
287.0000	5.81782	-0.000741003	0.459196	301.787
286.5000	5.79423	-0.0007138	0.461477	302.153
286.0000	5.62073	-0.000698934	0.463786	302.485
285.5000	5.61001	-0.000671417	0.466398	302.798
285.0000	5.44043	-0.000642074	0.469361	303.149
284.5000	5.46821	-0.000623994	0.47198	303.468
284.0000	5.41032	-0.000622266	0.474904	303.816
283.5000	5.2901	-0.0006026	0.478059	304.175
283.0000	5.23039	-0.000576868	0.481193	304.536
282.5000	5.25627	-0.00054494	0.484563	304.919
282.0000	5.49569	-0.000519431	0.487773	305.319
281.5000	5.56899	-0.000503094	0.490861	305.709
281.0000	5.58743	-0.000479725	0.494259	306.111
280.5000	5.58252	-0.000451526	0.497751	306.547
280.0000	5.52468	-0.000426684	0.501603	307.015
279.5000	5.36482	-0.000407176	0.505608	307.51
279.0000	5.27828	-0.000389869	0.509497	308.001
278.5000	5.52062	-0.000368779	0.514026	308.552
278.0000	5.57738	-0.000364622	0.51928	309.137
277.5000	5.72565	-0.000342205	0.524471	309.714
277.0000	5.76076	-0.000321593	0.529876	310.344
276.5000	5.85045	-0.000311923	0.535378	310.999
276.0000	5.83719	-0.000296692	0.540709	311.623
275.5000	5.95002	-0.000275244	0.547188	312.348
275.0000	5.97038	-0.000259626	0.553925	313.106
274.5000	5.86731	-0.000241431	0.560703	313.892
274.0000	5.88141	-0.000217891	0.568102	314.775
273.5000	5.77193	-0.000203489	0.57545	315.614
273.0000	5.784	-0.000168125	0.583626	316.542
272.5000	5.5661	-0.00015512	0.592287	317.531
272.0000	5.69554	-0.000133349	0.601223	318.568
271.5000	5.85912	-0.000106031	0.611044	319.708
271.0000	5.92239	-8.39313E-005	0.621047	320.836
270.5000	5.88669	-6.96822E-005	0.631859	322.035
270.0000	6.02632	-4.45737E-005	0.642885	323.295
269.5000	5.81742	-2.77813E-006	0.654288	324.634
269.0000	5.86511	2.96906E-005	0.665815	325.974
268.5000	5.82522	3.70092E-005	0.678822	327.47
268.0000	5.6361	6.79063E-005	0.692582	329.044
267.5000	5.25025	9.23401E-005	0.706844	330.686
267.0000	4.92392	0.00013148	0.722304	332.504
266.5000	4.99791	0.000117004	0.738236	334.404
266.0000	4.83867	0.000139635	0.753523	336.182
265.5000	4.27057	0.000143069	0.770521	338.132
265.0000	3.9161	0.000127185	0.7887	340.268
264.5000	3.67227	0.000146249	0.806249	342.365
264.0000	3.48267	0.000170573	0.824193	344.517
263.5000	2.97068	0.000187063	0.84366	346.83
263.0000	2.25748	0.000170835	0.861555	348.969
262.5000	2.12051	0.000155956	0.881364	351.389
262.0000	1.45671	0.000140651	0.900325	353.758
261.5000	1.26614	0.000131305	0.919792	356.168
261.0000	0.824308	0.000110135	0.938945	358.499
260.5000	0.32632	0.000123935	0.959535	361.032
260.0000	0.182903	0.00013692	0.980426	363.633
259.5000	-0.309709	0.000106759	1.00179	366.318
259.0000	-0.588169	9.0505E-005	1.02355	369.093
258.5000	-1.09066	8.44262E-005	1.04643	371.977
258.0000	-1.78059	4.57811E-005	1.07029	374.991
257.5000	-2.2211	4.11146E-005	1.09361	377.949
257.0000	-2.0376	1.9381E-006	1.11903	381.191
256.5000	-2.3507	4.80254E-006	1.14416	384.398
256.0000	-2.67474	-5.6149E-005	1.17184	387.927
255.5000	-2.99649	-7.37946E-005	1.20094	391.634
255.0000	-3.08102	-0.000105209	1.23124	395.528
254.5000	-3.30401	-0.000134791	1.26137	399.42
254.0000	-3.78509	-0.000120095	1.2927	403.483
253.5000	-3.86483	-0.000148279	1.3293	408.196
253.0000	-4.40264	-0.000190329	1.36372	412.687
252.5000	-4.74468	-0.000276494	1.41636	419.669
252.0000	-5.57442	-0.000312388	1.46192	425.754
251.5000	-6.05441	-0.000340637	1.50333	431.313
251.0000	-6.09624	-0.000377622	1.5467	437.139
250.5000	-5.56671	-0.000404922	1.59136	443.223
250.0000	-5.45332	-0.00042427	1.63507	449.257
249.5000	-5.59907	-0.000430455	1.68023	455.559
249.0000	-6.37769	-0.000464687	1.72961	462.511
248.5000	-6.87279	-0.000436301	1.77845	469.433
248.0000	-7.43341	-0.000445039	1.83172	477.078
247.5000	-7.93855	-0.000536385	1.88381	484.668
247.0000	-8.94341	-0.000481256	1.94053	493.054
246.5000	-9.23347	-0.000513916	1.99944	501.851
246.0000	-6.69779	-0.000440337	2.06093	511.135
245.5000	-6.76354	-0.000446021	2.12716	521.355
245.0000	-7.27198	-0.000578811	2.19579	532.113
244.5000	-5.99924	-0.000633538	2.2669	543.435
244.0000	-3.51934	-0.000723093	2.34012	555.325
243.5000	-4.83366	-0.000880224	2.41209	567.248
243.0000	-4.78974	-0.00105337	2.48591	579.742
242.5000	-5.98839	-0.000965758	2.56953	594.192
242.0000	-8.638	-0.00104024	2.64366	607.27
241.5000	-8.46924	-0.0010809	2.72746	622.357
241.0000	-7.5634	-0.00126325	2.8043	636.489
240.5000	-8.43482	-0.00142005	2.88972	652.625
240.0000	-9.20963	-0.00142582	2.96731	667.61
239.5000	-11.6534	-0.00106279	3.05711	685.358
239.0000	-11.3277	-0.00091942	3.13382	700.852
238.5000	-11.0778	-0.000740017	3.21311	717.246
238.0000	-12.3609	-0.000525027	3.29362	734.372
237.5000	-13.9334	-0.000446942	3.36374	749.684
237.0000	-11.6256	-0.000330973	3.43408	765.419
236.5000	-8.04539	-0.000122889	3.50052	780.656
236.0000	-9.56625	-8.72373E-005	3.55982	794.574
235.5000	-9.57284	0.000267662	3.62283	809.825
235.0000	-8.66289	0.000608587	3.66229	819.632
234.5000	-10.2842	0.000716798	3.70125	829.516
234.0000	-9.67239	0.000278447	3.73903	839.321
233.5000	-8.72048	0.000167892	3.7768	849.377
233.0000	-11.0372	7.716E-005	3.81117	858.868
232.5000	-12.9703	0.000240336	3.8387	866.883
232.0000	-13.5299	0.000113751	3.86491	875.008
231.5000	-10.9652	0.000110381	3.88173	880.702
231.0000	-10.2498	-0.000109301	3.89612	886.094
230.5000	-5.84573	-0.000184185	3.90597	890.552
230.0000	-2.58878	-0.000492309	3.9116	894.039
229.5000	-3.79092	-0.000645091	3.91432	896.973
229.0000	-4.0852	-0.00110834	3.91366	899.171
228.5000	-5.01004	-0.00109058	3.91118	900.928
228.0000	-7.19015	-0.000800107	3.90695	902.183
227.5000	-5.40674	-0.000730013	3.90039	903.143
227.0000	-1.87296	-0.000657657	3.89262	903.846
226.5000	0.288712	-0.000609016	3.88363	904.405
226.0000	0.302193	-0.000699867	3.87442	904.731
225.5000	1.83683	-0.000462775	3.86423	905.019
225.0000	-1.25322	-0.000348178	3.8531	905.229
224.5000	3.54415	-0.000311867	3.84144	905.385
224.0000	5.89214	-2.66068E-005	3.82964	905.495
223.5000	8.27345	0.000401946	3.81795	905.564
223.0000	10.6248	0.000641647	3.80651	905.653
222.5000	7.16125	0.000633221	3.79219	905.731
222.0000	6.42554	0.000862261	3.7789	905.771
221.5000	7.30724	0.000694812	3.76484	905.799
221.0000	5.46812	0.00108408	3.75288	905.843
220.5000	7.30624	0.00115333	3.74061	905.839
220.0000	6.40546	0.000964431	3.72774	905.862

##### Extended Information
[Comments]
Sample name	JS187+JS190_5E-5_H2O_0-100_100EQDT+24H
Comment
User
Division
Company	Labo systeme complexes hors equilibre

[Detailed Information]
Creation date	1/24/2024 12:20 PM

Data array type	Linear data array * 4
Horizontal axis	Wavelength [nm]
Vertical axis(1)	CD [mdeg]
Vertical axis(2)	LD [dOD]
Vertical axis(3)	Abs
Vertical axis(4)	HT [V]
Start	700 nm
End	220 nm
Data interval	0.5 nm
Data points	961     

[Measurement Information]
Instrument name	CD Jasco
Model name	J-1500
Serial No.	A005261638

Detector	PM-539
Detector S/N	A0052PM539
  Lock-in amp.	X mode
  HT volt	Auto

Detector	EXPML-535
Detector S/N	A0001
  Lock-in amp.	X mode
  HT volt	Auto

Measurement date	1/24/2024 12:20 PM

Overload detect	1
Photometric mode	CD, LD, Abs, HT
Measure range	700 - 220 nm
Data pitch	0.5 nm
CD scale	200 mdeg/1.0 dOD
FL scale	200 mdeg/1.0 dOD
D.I.T.	1 sec
Bandwidth	1.00 nm
Start mode	Immediately
Scanning speed	500 nm/min
Baseline correction	Baseline
Shutter control	Auto


