TITLE	JS187+JS190_5E-5_H2O_100-0
DATA TYPE	
ORIGIN	JASCO
OWNER	
DATE	24/01/23
TIME	11:09:56
SPECTROMETER/DATA SYSTEM	
LOCALE	1033
RESOLUTION	
DELTAX	-0.5
XUNITS	NANOMETERS
YUNITS	CD [mdeg]
Y2UNITS	LD [dOD]
Y3UNITS	ABSORBANCE
Y4UNITS	HT [V]
FIRSTX	  700.0000
LASTX	  220.0000
NPOINTS	     961
FIRSTY	     0.35494
MAXY	    34.21718
MINY	   -42.30283
XYDATA
700.0000	0.354943	0.000234907	-0.060649	298.589
699.5000	0.155821	0.000228518	-0.0618155	298.277
699.0000	0.11967	0.000223586	-0.0631465	297.906
698.5000	0.386724	0.000252991	-0.0640785	297.489
698.0000	0.458806	0.000244147	-0.0653816	297.038
697.5000	0.206823	0.000252796	-0.0671022	296.573
697.0000	-0.0953267	0.00025936	-0.0691819	296.056
696.5000	-0.0691667	0.000257718	-0.0704735	295.533
696.0000	-0.125027	0.000251153	-0.0708518	294.979
695.5000	-0.0145684	0.000224016	-0.0708881	294.458
695.0000	-0.127708	0.000216521	-0.0702735	294
694.5000	-0.353391	0.000209042	-0.069581	293.569
694.0000	-0.163929	0.000208175	-0.0674845	293.193
693.5000	-0.0445832	0.000219603	-0.0650953	292.849
693.0000	-0.133505	0.000223014	-0.062131	292.556
692.5000	-0.344546	0.000220534	-0.0591838	292.286
692.0000	-0.344811	0.000244857	-0.0562624	292.052
691.5000	-0.216533	0.000230004	-0.0530995	291.85
691.0000	-0.0493142	0.000228496	-0.0501428	291.647
690.5000	-0.216763	0.000232508	-0.0480862	291.464
690.0000	-0.186427	0.000226752	-0.0461405	291.318
689.5000	-0.334034	0.000228369	-0.0438627	291.225
689.0000	-0.495357	0.000221165	-0.0406845	291.199
688.5000	-0.482925	0.000211391	-0.0372163	291.279
688.0000	-0.619002	0.000225169	-0.0328804	291.465
687.5000	-0.726454	0.00023066	-0.0283968	291.712
687.0000	-0.730222	0.000227482	-0.0247088	291.964
686.5000	-0.6769	0.000220448	-0.0219271	292.221
686.0000	-0.823382	0.000205834	-0.0208197	292.453
685.5000	-0.751546	0.000214143	-0.0209067	292.677
685.0000	-1.02609	0.000212002	-0.0213843	292.899
684.5000	-1.21965	0.00020729	-0.0224346	293.111
684.0000	-1.07035	0.000221816	-0.0238988	293.321
683.5000	-1.16484	0.000221488	-0.0248532	293.541
683.0000	-1.20524	0.000228077	-0.0257488	293.779
682.5000	-1.41522	0.000219418	-0.0259734	294.036
682.0000	-1.01052	0.000225374	-0.0262237	294.327
681.5000	-0.852476	0.000226809	-0.0261117	294.605
681.0000	-0.595901	0.000232308	-0.0261246	294.884
680.5000	-0.344459	0.000236832	-0.0268173	295.077
680.0000	-0.476796	0.00021988	-0.0289273	295.205
679.5000	-0.403254	0.000210879	-0.0317873	295.257
679.0000	-0.496663	0.000208323	-0.0355921	295.265
678.5000	-0.353834	0.000216216	-0.0381325	295.259
678.0000	-0.172487	0.000235101	-0.0403351	295.245
677.5000	-0.0576726	0.000242269	-0.0415565	295.233
677.0000	-0.130271	0.000242548	-0.0420852	295.215
676.5000	0.219267	0.000248218	-0.0417958	295.203
676.0000	0.121411	0.000241607	-0.0414416	295.193
675.5000	0.0135186	0.000235142	-0.0410492	295.187
675.0000	0.014041	0.000225363	-0.0403197	295.198
674.5000	0.0756179	0.000223825	-0.0391166	295.224
674.0000	0.0264821	0.000245527	-0.0380296	295.24
673.5000	-0.110831	0.000239078	-0.0367773	295.273
673.0000	-0.345164	0.000231436	-0.0365433	295.304
672.5000	-0.354462	0.000217615	-0.0362085	295.354
672.0000	-0.20779	0.000237418	-0.0357125	295.397
671.5000	-0.17784	0.000248009	-0.0346462	295.451
671.0000	-0.247107	0.000249449	-0.0335135	295.513
670.5000	-0.213595	0.000271268	-0.0322091	295.575
670.0000	-0.299195	0.000278355	-0.0310948	295.641
669.5000	-0.0359254	0.000283529	-0.0304758	295.714
669.0000	0.0171929	0.000283318	-0.0296675	295.803
668.5000	0.0856802	0.000265273	-0.0289134	295.89
668.0000	0.0155057	0.000242755	-0.0281961	296.006
667.5000	0.265401	0.000245706	-0.0276052	296.127
667.0000	0.228702	0.000270478	-0.0273566	296.242
666.5000	0.343492	0.000262018	-0.0271214	296.356
666.0000	0.0736602	0.000272016	-0.0275018	296.486
665.5000	-0.119098	0.000255682	-0.0274265	296.62
665.0000	0.128583	0.000267353	-0.0265581	296.753
664.5000	0.376041	0.000275661	-0.0254482	296.879
664.0000	0.126326	0.000265819	-0.0250468	297.004
663.5000	0.0951189	0.000245944	-0.0257685	297.115
663.0000	0.424482	0.000242757	-0.0259123	297.202
662.5000	0.386868	0.000243743	-0.0261003	297.288
662.0000	0.359837	0.000231494	-0.0263793	297.362
661.5000	0.214629	0.000232419	-0.0260901	297.427
661.0000	0.189419	0.000222715	-0.0262731	297.474
660.5000	0.290732	0.000247056	-0.0265388	297.521
660.0000	0.544668	0.000255004	-0.0267204	297.542
659.5000	0.482471	0.000260075	-0.0272275	297.564
659.0000	0.459539	0.000239624	-0.0275725	297.565
658.5000	0.275575	0.000238501	-0.0278776	297.537
658.0000	0.269936	0.000235357	-0.0278637	297.488
657.5000	0.54891	0.000239942	-0.0284289	297.418
657.0000	0.282035	0.000235073	-0.0281092	297.329
656.5000	0.153723	0.000245314	-0.0289662	297.213
656.0000	0.367048	0.000261116	-0.0297686	297.078
655.5000	0.685729	0.000252535	-0.0291475	296.928
655.0000	0.415119	0.0002582	-0.0290266	296.781
654.5000	0.380988	0.000254976	-0.0291108	296.664
654.0000	0.405834	0.00024811	-0.0284072	296.544
653.5000	0.401697	0.0002492	-0.0268891	296.443
653.0000	0.50122	0.000263	-0.0250342	296.353
652.5000	0.514853	0.000284302	-0.0230898	296.299
652.0000	0.593867	0.000271281	-0.0210748	296.259
651.5000	0.296875	0.000272585	-0.0185388	296.251
651.0000	0.198058	0.000252635	-0.0154697	296.277
650.5000	0.172695	0.00026939	-0.0130344	296.34
650.0000	0.508047	0.000285783	-0.010223	296.422
649.5000	0.625801	0.000291221	-0.00796993	296.526
649.0000	0.771781	0.00029148	-0.00552677	296.648
648.5000	0.914953	0.000288772	-0.00389302	296.803
648.0000	1.01344	0.000280537	-0.00187015	296.985
647.5000	0.850919	0.000295777	5.95692E-005	297.184
647.0000	0.738428	0.000288946	0.0013989	297.4
646.5000	0.841965	0.000303499	0.00241557	297.606
646.0000	0.87616	0.00030404	0.00416452	297.799
645.5000	0.95941	0.000313814	0.00488463	297.968
645.0000	0.856795	0.000298861	0.00433848	298.113
644.5000	0.914937	0.000306838	0.004188	298.248
644.0000	0.781089	0.000303858	0.00411464	298.354
643.5000	0.550629	0.000302303	0.00365634	298.435
643.0000	0.871281	0.000305537	0.0032176	298.489
642.5000	0.973074	0.000332386	0.00276368	298.514
642.0000	1.07951	0.000335178	0.00248552	298.519
641.5000	1.02817	0.000319083	0.00220449	298.516
641.0000	0.611762	0.000306097	0.00223927	298.496
640.5000	0.513796	0.000314747	0.00271788	298.467
640.0000	0.500133	0.000333438	0.00352319	298.436
639.5000	0.372473	0.000325658	0.0044748	298.378
639.0000	0.314776	0.000339792	0.0051827	298.311
638.5000	0.371016	0.000326278	0.00643117	298.243
638.0000	0.397105	0.000327417	0.00709939	298.173
637.5000	0.233478	0.000326667	0.00760847	298.106
637.0000	0.395752	0.000347584	0.00908661	298.046
636.5000	0.332707	0.000335446	0.0102207	297.982
636.0000	0.458151	0.000306514	0.0106534	297.919
635.5000	0.56033	0.000323121	0.0112944	297.867
635.0000	0.422388	0.000334918	0.012372	297.821
634.5000	0.315522	0.000316016	0.0133975	297.783
634.0000	0.104579	0.00031365	0.0142534	297.741
633.5000	0.0304977	0.000308099	0.0148463	297.713
633.0000	0.153123	0.000313497	0.0158712	297.678
632.5000	0.194236	0.000309207	0.0163172	297.65
632.0000	0.214975	0.000313904	0.0167688	297.623
631.5000	0.266144	0.000312929	0.0174507	297.591
631.0000	0.52345	0.000324017	0.0180841	297.558
630.5000	0.480555	0.000307365	0.018685	297.524
630.0000	0.333281	0.000318845	0.0193064	297.484
629.5000	0.386626	0.000320152	0.0199371	297.431
629.0000	0.376706	0.000342923	0.0204079	297.387
628.5000	0.254118	0.000313333	0.0205839	297.334
628.0000	0.10981	0.00033998	0.0211702	297.293
627.5000	-0.108972	0.000357657	0.0220249	297.245
627.0000	-0.300437	0.000344108	0.0222948	297.19
626.5000	-0.156089	0.000343701	0.0221812	297.129
626.0000	-0.266962	0.00034616	0.0223806	297.089
625.5000	-0.28453	0.00033913	0.0232133	297.05
625.0000	-0.246726	0.000338049	0.0243124	297.03
624.5000	-0.278581	0.000328781	0.0253645	297.008
624.0000	-0.271923	0.000331877	0.0263583	297
623.5000	-0.383703	0.000342035	0.0274924	297.011
623.0000	-0.773311	0.000329938	0.0286405	297.038
622.5000	-0.915482	0.000343575	0.0298157	297.065
622.0000	-1.10942	0.00034641	0.0307783	297.109
621.5000	-1.00218	0.000342836	0.0317489	297.16
621.0000	-0.983752	0.000337685	0.0329309	297.235
620.5000	-1.07868	0.000328731	0.0337271	297.309
620.0000	-1.14326	0.000338156	0.0344862	297.403
619.5000	-1.02749	0.000330481	0.0356047	297.522
619.0000	-0.903313	0.000330626	0.0370888	297.648
618.5000	-0.932412	0.00032947	0.0389551	297.786
618.0000	-1.1492	0.000333106	0.0409865	297.942
617.5000	-0.957887	0.000350103	0.0419087	298.095
617.0000	-1.11657	0.000356619	0.0425096	298.25
616.5000	-0.893141	0.000360169	0.0431965	298.409
616.0000	-0.923022	0.000361181	0.0443524	298.568
615.5000	-0.814752	0.000353914	0.0449557	298.714
615.0000	-0.559792	0.000357112	0.0454388	298.856
614.5000	-0.36442	0.000364901	0.0457546	299
614.0000	-0.207474	0.000360126	0.0461651	299.149
613.5000	-0.171602	0.000363465	0.0468576	299.303
613.0000	-0.241522	0.000357617	0.0473764	299.457
612.5000	-0.102588	0.000363666	0.0480217	299.613
612.0000	0.0819882	0.000368778	0.0486704	299.758
611.5000	-0.0573917	0.000373026	0.0494108	299.882
611.0000	-0.212419	0.000358326	0.049819	300.023
610.5000	-0.0344568	0.000378804	0.0501796	300.168
610.0000	-0.0400635	0.000373999	0.0502395	300.29
609.5000	-0.248768	0.000361668	0.0510638	300.425
609.0000	-0.305294	0.00035591	0.0518077	300.548
608.5000	-0.370719	0.000346674	0.0528018	300.66
608.0000	-0.647995	0.000356353	0.05334	300.758
607.5000	-0.963003	0.000347798	0.053412	300.852
607.0000	-0.932884	0.000342733	0.0539899	300.959
606.5000	-1.24031	0.000340164	0.0547062	301.066
606.0000	-1.37405	0.00035123	0.0562779	301.188
605.5000	-1.4336	0.000362423	0.0572778	301.284
605.0000	-1.51347	0.000367288	0.0586859	301.386
604.5000	-1.64738	0.000373773	0.0597501	301.476
604.0000	-1.87944	0.000365952	0.0610055	301.558
603.5000	-1.99718	0.000364382	0.0625544	301.651
603.0000	-1.74455	0.000374457	0.0636534	301.74
602.5000	-1.69865	0.000364852	0.0652487	301.831
602.0000	-1.5091	0.000369904	0.0669729	301.917
601.5000	-1.49343	0.000378619	0.0684673	301.994
601.0000	-1.52681	0.00036848	0.0698687	302.062
600.5000	-1.59516	0.000379986	0.0718438	302.131
600.0000	-1.58438	0.000384497	0.0734858	302.193
599.5000	-1.79014	0.000384035	0.0761117	302.264
599.0000	-1.91263	0.000395886	0.0782031	302.318
598.5000	-1.79224	0.000403041	0.0808954	302.371
598.0000	-1.55909	0.000411735	0.0829428	302.402
597.5000	-1.62069	0.000403001	0.0850375	302.456
597.0000	-1.59997	0.00039882	0.0875631	302.522
596.5000	-1.562	0.000384876	0.09004	302.559
596.0000	-1.4065	0.000409208	0.0926919	302.607
595.5000	-1.57557	0.000401521	0.0953443	302.671
595.0000	-1.48961	0.000405331	0.098177	302.713
594.5000	-1.53308	0.00040511	0.101128	302.766
594.0000	-1.55705	0.000420494	0.103679	302.834
593.5000	-1.55672	0.000414659	0.106909	302.911
593.0000	-1.40595	0.000420029	0.110481	302.989
592.5000	-1.07507	0.000451382	0.113671	303.097
592.0000	-0.852887	0.000468891	0.116798	303.221
591.5000	-0.644837	0.000461515	0.119581	303.34
591.0000	-0.539817	0.000477941	0.123021	303.478
590.5000	-0.356287	0.000462729	0.126352	303.646
590.0000	-0.238592	0.000461649	0.129926	303.828
589.5000	-0.120498	0.000470706	0.133881	304.032
589.0000	-0.0185484	0.000476178	0.137851	304.243
588.5000	0.0682338	0.000476165	0.141838	304.479
588.0000	0.0874747	0.000474451	0.146298	304.747
587.5000	0.365509	0.00049967	0.150917	305.045
587.0000	0.41198	0.000505234	0.155712	305.397
586.5000	0.301773	0.000507216	0.16026	305.735
586.0000	0.485368	0.000509999	0.16555	306.093
585.5000	0.61705	0.000511419	0.170602	306.482
585.0000	0.916625	0.000542248	0.175767	306.897
584.5000	1.11992	0.000546666	0.180902	307.311
584.0000	1.34822	0.000550028	0.186727	307.768
583.5000	1.54252	0.000557533	0.192996	308.265
583.0000	1.8819	0.000573894	0.200164	308.829
582.5000	2.43649	0.000581849	0.207225	309.423
582.0000	2.63561	0.000619899	0.214407	310.025
581.5000	2.95903	0.000654185	0.222071	310.68
581.0000	3.2004	0.000651648	0.230126	311.349
580.5000	3.64849	0.000676275	0.238541	312.06
580.0000	4.10234	0.000695157	0.246891	312.784
579.5000	4.72417	0.000700222	0.255546	313.555
579.0000	5.20873	0.000721591	0.264479	314.344
578.5000	5.98637	0.000741956	0.274007	315.15
578.0000	6.55537	0.000776784	0.283827	316.018
577.5000	7.23161	0.000794424	0.293947	316.975
577.0000	7.93673	0.00080548	0.304858	317.925
576.5000	8.5368	0.000825806	0.316767	318.971
576.0000	9.47884	0.000852324	0.328572	320.015
575.5000	10.3618	0.000878006	0.341239	321.133
575.0000	10.9553	0.000911901	0.352792	322.2
574.5000	11.7163	0.000933053	0.365761	323.38
574.0000	12.6176	0.000937946	0.37903	324.564
573.5000	13.6896	0.000966972	0.392483	325.782
573.0000	14.6707	0.000995474	0.406519	327.111
572.5000	15.7906	0.00102418	0.420017	328.398
572.0000	17.0993	0.0010759	0.435231	329.87
571.5000	18.2118	0.00110091	0.450467	331.326
571.0000	19.3012	0.00112329	0.467197	332.88
570.5000	20.4959	0.00115725	0.484168	334.52
570.0000	21.7419	0.00120039	0.500515	336.115
569.5000	22.8125	0.0012355	0.518324	337.802
569.0000	23.7323	0.00130576	0.536223	339.5
568.5000	24.6379	0.00133544	0.553023	341.16
568.0000	25.7982	0.00138222	0.570167	342.891
567.5000	26.7478	0.00141997	0.587619	344.654
567.0000	27.8418	0.00146116	0.604868	346.363
566.5000	28.8454	0.00147228	0.621825	348.028
566.0000	29.6435	0.00152128	0.638523	349.672
565.5000	30.4266	0.00153622	0.654689	351.302
565.0000	31.3123	0.0015333	0.670727	352.889
564.5000	31.9738	0.00154904	0.686598	354.455
564.0000	32.3325	0.00156791	0.701574	355.902
563.5000	32.9214	0.00159994	0.71559	357.285
563.0000	33.5682	0.0016426	0.729671	358.71
562.5000	33.7966	0.00166102	0.74257	359.989
562.0000	33.5512	0.00166787	0.754849	361.198
561.5000	33.6329	0.00163759	0.768133	362.467
561.0000	33.7062	0.00163353	0.780149	363.644
560.5000	34.2172	0.00164764	0.791222	364.732
560.0000	33.8381	0.00163558	0.801825	365.741
559.5000	33.684	0.00163527	0.81163	366.615
559.0000	33.5143	0.00162516	0.819741	367.331
558.5000	32.8431	0.0016136	0.826478	367.934
558.0000	32.6231	0.00159747	0.83207	368.423
557.5000	32.0997	0.00159808	0.837249	368.83
557.0000	31.4124	0.00159113	0.841731	369.144
556.5000	30.2667	0.00154915	0.84504	369.38
556.0000	29.4519	0.00155112	0.846988	369.522
555.5000	28.6701	0.00151172	0.84838	369.564
555.0000	27.6863	0.00147408	0.848998	369.498
554.5000	26.6462	0.00143711	0.849261	369.349
554.0000	26.1409	0.00140777	0.848169	369.112
553.5000	25.4587	0.00139566	0.846474	368.807
553.0000	24.9957	0.00139343	0.844337	368.463
552.5000	24.273	0.0013431	0.842241	368.068
552.0000	23.5216	0.00131051	0.839352	367.579
551.5000	23.0339	0.00128787	0.836309	367.088
551.0000	22.0766	0.00126057	0.832527	366.561
550.5000	21.5242	0.00126239	0.828589	365.999
550.0000	21.066	0.00127916	0.82463	365.406
549.5000	20.6264	0.00126459	0.820801	364.807
549.0000	20.6346	0.00126305	0.816404	364.212
548.5000	20.5165	0.00122946	0.811972	363.627
548.0000	20.409	0.00123989	0.808529	363.02
547.5000	20.3854	0.00122479	0.805348	362.469
547.0000	20.394	0.0012358	0.802345	361.915
546.5000	20.6154	0.00127105	0.799442	361.443
546.0000	20.8557	0.00128119	0.796144	361.003
545.5000	20.6719	0.00128626	0.794241	360.599
545.0000	20.8399	0.00127681	0.792632	360.278
544.5000	20.8891	0.00126595	0.791187	359.963
544.0000	21.3206	0.00129463	0.790031	359.729
543.5000	21.5462	0.00130797	0.789394	359.538
543.0000	21.9947	0.00131102	0.789442	359.405
542.5000	22	0.00129689	0.790288	359.328
542.0000	22.1833	0.00127854	0.791259	359.302
541.5000	22.6617	0.00127284	0.792837	359.363
541.0000	22.9053	0.00126807	0.794755	359.485
540.5000	23.1901	0.0012996	0.797804	359.653
540.0000	24.1614	0.00134181	0.801556	359.882
539.5000	24.2173	0.00135617	0.805537	360.192
539.0000	24.6737	0.00135569	0.809965	360.589
538.5000	25.0137	0.00134349	0.814859	361.016
538.0000	25.1383	0.00133212	0.820334	361.461
537.5000	25.6986	0.00135951	0.826569	362.003
537.0000	26.16	0.00135353	0.833202	362.613
536.5000	26.446	0.00138172	0.840345	363.264
536.0000	26.5938	0.00138474	0.84858	364.018
535.5000	27.0701	0.00141932	0.856716	364.771
535.0000	27.3741	0.00145012	0.865814	365.613
534.5000	27.8257	0.00148729	0.87454	366.428
534.0000	28.3846	0.00149447	0.883957	367.326
533.5000	28.5977	0.00154488	0.893554	368.269
533.0000	28.9902	0.00156228	0.902928	369.202
532.5000	29.209	0.00156758	0.91258	370.174
532.0000	29.0194	0.00154241	0.923098	371.231
531.5000	29.4887	0.00154586	0.933767	372.292
531.0000	29.8817	0.00157403	0.94558	373.416
530.5000	30.3008	0.00156965	0.956881	374.53
530.0000	30.4167	0.00158175	0.968612	375.713
529.5000	30.2662	0.00158806	0.980031	376.865
529.0000	30.3243	0.00160927	0.990972	377.934
528.5000	29.9908	0.00159109	1.00162	378.997
528.0000	30.3201	0.00160707	1.01167	379.997
527.5000	30.2638	0.00164344	1.02219	381.023
527.0000	30.0851	0.00160698	1.03371	382.152
526.5000	29.8318	0.00158436	1.04431	383.218
526.0000	29.5238	0.00152425	1.0555	384.317
525.5000	29.3264	0.0015382	1.06626	385.368
525.0000	28.7163	0.00154818	1.07662	386.381
524.5000	28.0664	0.00154125	1.08621	387.292
524.0000	27.9186	0.00159483	1.09504	388.123
523.5000	27.2695	0.00162987	1.10367	388.971
523.0000	26.0789	0.00159809	1.11196	389.779
522.5000	25.2702	0.00157615	1.1194	390.521
522.0000	24.3206	0.00157207	1.12696	391.245
521.5000	23.302	0.00155371	1.13452	391.944
521.0000	21.8907	0.0015163	1.14139	392.585
520.5000	21.5199	0.00150611	1.14795	393.192
520.0000	20.8035	0.00148486	1.15373	393.721
519.5000	19.7879	0.00147467	1.15964	394.234
519.0000	18.5988	0.001444	1.16498	394.71
518.5000	17.8319	0.00144196	1.16958	395.138
518.0000	16.9212	0.00143427	1.17468	395.585
517.5000	15.6617	0.00145461	1.17951	395.99
517.0000	14.5101	0.00138403	1.18443	396.378
516.5000	13.7082	0.00134224	1.18915	396.739
516.0000	13.1247	0.00132591	1.19354	397.087
515.5000	11.8111	0.00123866	1.1973	397.415
515.0000	11.6793	0.00120965	1.20082	397.703
514.5000	10.9293	0.00125159	1.20419	397.989
514.0000	10.3378	0.00125189	1.20716	398.216
513.5000	9.57187	0.00125001	1.21035	398.459
513.0000	9.3582	0.00121107	1.21314	398.698
512.5000	8.9761	0.00118365	1.2165	398.974
512.0000	8.44639	0.00116722	1.21973	399.229
511.5000	7.56326	0.00112878	1.22252	399.475
511.0000	7.05061	0.00113291	1.2253	399.7
510.5000	6.72692	0.00109574	1.2282	399.91
510.0000	5.81736	0.00107048	1.23095	400.105
509.5000	5.37074	0.00105695	1.23348	400.291
509.0000	4.58571	0.00106789	1.23589	400.479
508.5000	4.04415	0.00106294	1.23803	400.623
508.0000	2.94936	0.00104026	1.24054	400.774
507.5000	2.39817	0.0010405	1.24314	400.925
507.0000	1.59579	0.00101973	1.24591	401.09
506.5000	1.40898	0.000980517	1.24848	401.234
506.0000	0.642161	0.000920562	1.25064	401.381
505.5000	0.19561	0.000905672	1.25281	401.525
505.0000	-0.385976	0.000883208	1.25518	401.685
504.5000	-1.15998	0.000880529	1.25765	401.842
504.0000	-1.35787	0.000858498	1.25961	401.944
503.5000	-1.69536	0.000863714	1.2614	402.033
503.0000	-1.99855	0.000882563	1.26324	402.107
502.5000	-2.48173	0.000871647	1.26474	402.166
502.0000	-3.47901	0.000847713	1.26628	402.236
501.5000	-4.3183	0.000780962	1.26765	402.262
501.0000	-4.38518	0.00077467	1.26902	402.277
500.5000	-4.92583	0.000797492	1.27031	402.251
500.0000	-5.44124	0.000754421	1.2713	402.171
499.5000	-5.89805	0.000747665	1.27129	401.999
499.0000	-6.24589	0.000715682	1.27076	401.684
498.5000	-6.71968	0.00071197	1.26971	401.214
498.0000	-7.40463	0.000712294	1.26845	400.619
497.5000	-8.14228	0.000711657	1.26754	399.882
497.0000	-8.48324	0.000688315	1.26738	399.126
496.5000	-9.44904	0.000655129	1.26838	398.429
496.0000	-10.3257	0.000661702	1.27081	397.964
495.5000	-11.2077	0.000647174	1.27337	397.664
495.0000	-12.3189	0.000598444	1.27442	397.428
494.5000	-12.9077	0.000573161	1.27447	397.195
494.0000	-13.4368	0.000576411	1.27408	396.961
493.5000	-14.5582	0.000554458	1.27342	396.693
493.0000	-15.2284	0.000534621	1.2728	396.445
492.5000	-16.2598	0.000522544	1.27217	396.197
492.0000	-16.7719	0.000478286	1.27122	395.928
491.5000	-17.9905	0.000457632	1.27014	395.696
491.0000	-18.8561	0.000419972	1.26917	395.475
490.5000	-20.1554	0.000394205	1.2681	395.286
490.0000	-21.2794	0.000369265	1.2669	395.139
489.5000	-22.1319	0.000337189	1.26523	395.006
489.0000	-23.7171	0.000299385	1.26282	394.817
488.5000	-24.9018	0.00027029	1.25896	394.475
488.0000	-25.69	0.000192633	1.2533	393.839
487.5000	-27.185	0.000159831	1.24721	392.971
487.0000	-27.5794	0.000130797	1.24221	392.012
486.5000	-28.8598	0.00012164	1.23705	390.9
486.0000	-30.1066	0.000103896	1.23237	389.789
485.5000	-30.9833	7.47356E-005	1.22947	388.761
485.0000	-31.7211	6.40532E-005	1.22751	387.846
484.5000	-32.6208	1.10543E-006	1.22479	387.045
484.0000	-33.8106	-4.29255E-005	1.22102	386.272
483.5000	-34.5348	-5.15875E-005	1.21707	385.577
483.0000	-35.8908	-6.71482E-005	1.21219	384.867
482.5000	-36.5627	-6.11574E-005	1.20721	384.242
482.0000	-36.8775	-7.14743E-005	1.20201	383.658
481.5000	-37.9319	-7.81856E-005	1.19656	383.044
481.0000	-38.011	-0.000107543	1.19135	382.466
480.5000	-38.1764	-8.68294E-005	1.18598	381.921
480.0000	-38.6127	-9.41987E-005	1.17987	381.336
479.5000	-39.231	-0.000119325	1.17291	380.666
479.0000	-39.4425	-0.000126385	1.16336	379.733
478.5000	-40.1197	-0.000140874	1.1535	378.567
478.0000	-40.3558	-0.000171234	1.14596	377.281
477.5000	-40.2986	-0.000183027	1.14265	376.299
477.0000	-40.2578	-0.000214584	1.13883	375.458
476.5000	-40.3482	-0.000212961	1.12969	374.309
476.0000	-40.5164	-0.000213946	1.11908	372.933
475.5000	-40.4504	-0.000204092	1.10818	371.305
475.0000	-40.3473	-0.000202474	1.09741	369.47
474.5000	-40.1845	-0.000213365	1.08796	367.591
474.0000	-40.2895	-0.000221904	1.07874	365.551
473.5000	-40.6531	-0.000217363	1.06864	363.232
473.0000	-40.9128	-0.000242141	1.05879	360.778
472.5000	-41.0807	-0.000247279	1.05119	358.338
472.0000	-41.5475	-0.000240365	1.04706	356.366
471.5000	-41.2985	-0.000195891	1.04364	354.763
471.0000	-41.3137	-0.000182886	1.04072	353.771
470.5000	-41.4861	-0.000184475	1.03801	353.122
470.0000	-41.4271	-0.000167956	1.03388	352.726
469.5000	-41.6877	-0.000157526	1.025	352.14
469.0000	-42.0109	-0.000143214	1.01059	351.002
468.5000	-42.2948	-0.00013757	0.997275	349.553
468.0000	-42.1881	-0.00012114	0.987615	348.146
467.5000	-42.2923	-0.000116303	0.980536	346.984
467.0000	-42.2239	-0.000109475	0.975271	346.121
466.5000	-42.3028	-0.000110916	0.970365	345.474
466.0000	-42.2519	-9.64274E-005	0.964363	344.993
465.5000	-42.0766	-8.7314E-005	0.957993	344.742
465.0000	-41.8715	-6.99207E-005	0.950809	344.732
464.5000	-41.5944	-6.89535E-005	0.940913	344.757
464.0000	-41.7288	-5.81159E-005	0.927412	344.482
463.5000	-41.5556	-6.07751E-005	0.912239	343.813
463.0000	-41.1916	-5.7175E-005	0.89813	342.87
462.5000	-41.0562	-4.0473E-005	0.886297	341.828
462.0000	-41.0367	-2.26093E-005	0.875979	340.769
461.5000	-40.7109	-1.09108E-005	0.866787	339.855
461.0000	-40.2899	-1.059E-005	0.857876	339.089
460.5000	-40.1733	-7.03115E-006	0.848289	338.418
460.0000	-39.9145	5.02751E-006	0.838718	337.839
459.5000	-39.761	9.67374E-006	0.828475	337.288
459.0000	-39.5469	3.5589E-005	0.816405	336.598
458.5000	-39.2452	4.64994E-005	0.803658	335.794
458.0000	-38.6255	4.98501E-005	0.790206	334.807
457.5000	-38.0842	7.47066E-005	0.776486	333.576
457.0000	-37.6907	7.36835E-005	0.763851	332.217
456.5000	-37.511	8.21568E-005	0.75348	330.962
456.0000	-37.0226	0.000113838	0.742005	329.717
455.5000	-36.4642	0.000113956	0.727519	328.196
455.0000	-36.1894	0.000125334	0.714723	326.66
454.5000	-35.7365	0.000123821	0.705467	325.344
454.0000	-35.2322	0.000120422	0.696747	324.266
453.5000	-34.5434	0.000150096	0.685968	323.3
453.0000	-34.1414	0.000142567	0.674539	322.345
452.5000	-33.4921	0.000171056	0.66314	321.348
452.0000	-32.8694	0.000195204	0.652048	320.32
451.5000	-32.1588	0.000220515	0.640428	319.246
451.0000	-31.4805	0.0002345	0.6294	318.223
450.5000	-30.898	0.000243814	0.617996	317.149
450.0000	-30.6301	0.000278599	0.607861	316.152
449.5000	-30.1056	0.000299684	0.599363	315.352
449.0000	-29.5377	0.000299697	0.591179	314.713
448.5000	-29.1333	0.000315648	0.580553	313.989
448.0000	-28.4313	0.000353696	0.56944	313.154
447.5000	-27.8702	0.000348644	0.561277	312.475
447.0000	-27.4389	0.00036342	0.555175	312.062
446.5000	-27.0206	0.00038637	0.547381	311.714
446.0000	-26.5119	0.000416999	0.535099	311.064
445.5000	-26.1159	0.000430388	0.523073	310.162
445.0000	-25.9345	0.000424312	0.512714	309.14
444.5000	-25.5406	0.000437026	0.502991	308.103
444.0000	-24.925	0.000443797	0.493729	307.085
443.5000	-24.5002	0.000468872	0.484444	305.997
443.0000	-24.2176	0.000488633	0.476658	305.041
442.5000	-23.9619	0.000498787	0.469327	304.14
442.0000	-23.5744	0.000500816	0.462651	303.376
441.5000	-23.1324	0.000507653	0.455025	302.556
441.0000	-22.9252	0.000508283	0.447857	301.799
440.5000	-22.7662	0.000523953	0.440885	301.063
440.0000	-22.4709	0.000525023	0.433402	300.286
439.5000	-21.9135	0.00051864	0.425696	299.496
439.0000	-21.2809	0.000551343	0.417434	298.66
438.5000	-20.8562	0.000556728	0.408845	297.818
438.0000	-20.5207	0.000579702	0.400188	296.99
437.5000	-19.9766	0.000581873	0.391943	296.193
437.0000	-19.2597	0.000600049	0.383438	295.392
436.5000	-18.7008	0.000631898	0.376732	294.727
436.0000	-18.3732	0.000662394	0.370472	294.121
435.5000	-18.0174	0.000666228	0.363626	293.527
435.0000	-17.7059	0.000672119	0.356339	292.931
434.5000	-17.2534	0.000686454	0.348861	292.32
434.0000	-16.732	0.00070137	0.341515	291.689
433.5000	-16.4722	0.00071696	0.334662	291.074
433.0000	-16.1875	0.000721522	0.327917	290.418
432.5000	-15.7548	0.000731243	0.32137	289.776
432.0000	-15.2873	0.000738227	0.314591	289.119
431.5000	-15.0895	0.00074873	0.307917	288.462
431.0000	-14.7647	0.000748373	0.30141	287.807
430.5000	-14.536	0.000769475	0.295049	287.155
430.0000	-14.1516	0.000788665	0.289241	286.541
429.5000	-13.753	0.000801992	0.283049	285.898
429.0000	-13.61	0.000803308	0.277014	285.264
428.5000	-13.3287	0.000802025	0.270911	284.633
428.0000	-13.0914	0.000795915	0.264267	283.979
427.5000	-12.8171	0.000798111	0.258636	283.398
427.0000	-12.5273	0.000805156	0.253264	282.83
426.5000	-12.201	0.000806791	0.247919	282.257
426.0000	-12.1164	0.000825008	0.242409	281.65
425.5000	-11.7553	0.000813278	0.236984	281.012
425.0000	-11.4448	0.000815975	0.231381	280.35
424.5000	-10.999	0.000812755	0.226011	279.677
424.0000	-10.6406	0.000827466	0.221396	279.055
423.5000	-10.4065	0.000839555	0.217542	278.505
423.0000	-10.0969	0.000858897	0.213328	277.989
422.5000	-9.8859	0.000866802	0.208931	277.515
422.0000	-9.71108	0.000861342	0.204348	277.055
421.5000	-9.37326	0.000849826	0.199929	276.618
421.0000	-8.96547	0.000846584	0.195953	276.216
420.5000	-8.61526	0.000861899	0.191859	275.809
420.0000	-8.49214	0.000871207	0.187668	275.378
419.5000	-8.21822	0.000878477	0.183703	274.949
419.0000	-7.89095	0.000880478	0.179953	274.55
418.5000	-7.65085	0.000877953	0.176133	274.181
418.0000	-7.46055	0.00088749	0.172778	273.832
417.5000	-7.29195	0.000897744	0.169341	273.494
417.0000	-7.12405	0.000910819	0.166362	273.182
416.5000	-6.89544	0.000919097	0.163743	272.939
416.0000	-6.80385	0.000911288	0.160783	272.729
415.5000	-6.68055	0.000919299	0.157246	272.482
415.0000	-6.59366	0.000911102	0.153761	272.204
414.5000	-6.30594	0.000909267	0.150742	271.894
414.0000	-6.02019	0.000918721	0.148293	271.593
413.5000	-5.89776	0.000934829	0.145926	271.281
413.0000	-5.88669	0.000942434	0.143569	270.984
412.5000	-5.85427	0.000942877	0.141278	270.716
412.0000	-5.48009	0.000956106	0.139309	270.486
411.5000	-5.21667	0.000965173	0.136979	270.247
411.0000	-5.05236	0.000958654	0.13481	270.027
410.5000	-5.01508	0.000949193	0.132864	269.819
410.0000	-5.04261	0.000945489	0.131191	269.635
409.5000	-4.99195	0.000943503	0.129616	269.471
409.0000	-4.89727	0.000939096	0.128034	269.325
408.5000	-4.7203	0.000941764	0.125939	269.162
408.0000	-4.60893	0.000945457	0.123764	269.006
407.5000	-4.30536	0.00095382	0.121487	268.834
407.0000	-4.11148	0.000940444	0.119546	268.666
406.5000	-3.99525	0.00094138	0.117753	268.496
406.0000	-3.86075	0.000942657	0.115925	268.319
405.5000	-3.79	0.000942774	0.113813	268.124
405.0000	-3.69231	0.000935724	0.111882	267.921
404.5000	-3.54376	0.000937375	0.110137	267.716
404.0000	-3.55893	0.000939597	0.108741	267.486
403.5000	-3.59535	0.00093853	0.10721	267.221
403.0000	-3.58752	0.000941419	0.106188	266.957
402.5000	-3.43131	0.000951164	0.104789	266.677
402.0000	-3.43043	0.000954576	0.103967	266.418
401.5000	-3.18497	0.000959935	0.103243	266.138
401.0000	-3.02183	0.000964492	0.102374	265.885
400.5000	-2.93931	0.00095995	0.101709	265.661
400.0000	-2.84737	0.000960908	0.100986	265.464
399.5000	-2.76097	0.000962307	0.100743	265.273
399.0000	-2.77971	0.000973103	0.100491	265.115
398.5000	-2.80992	0.000970663	0.0998946	264.961
398.0000	-2.79798	0.000965322	0.0992984	264.831
397.5000	-2.7889	0.000961439	0.0988064	264.736
397.0000	-2.62812	0.000955596	0.0987183	264.671
396.5000	-2.6077	0.000952154	0.0984201	264.636
396.0000	-2.55328	0.000958119	0.0983961	264.642
395.5000	-2.43512	0.000946346	0.0978531	264.66
395.0000	-2.3193	0.000941562	0.0976482	264.722
394.5000	-2.03358	0.000949649	0.0973959	264.795
394.0000	-2.00982	0.00095554	0.0973075	264.903
393.5000	-1.92542	0.000958392	0.0969498	265.03
393.0000	-1.94422	0.00094945	0.0963717	265.165
392.5000	-1.77778	0.000967034	0.0959866	265.291
392.0000	-1.75051	0.000965192	0.0958259	265.403
391.5000	-1.86774	0.000973794	0.0956944	265.483
391.0000	-1.79822	0.000967751	0.0955265	265.561
390.5000	-1.7763	0.000971979	0.0952989	265.645
390.0000	-1.78882	0.00098759	0.0951565	265.726
389.5000	-1.70835	0.00100479	0.0954447	265.806
389.0000	-1.60957	0.000997305	0.0958354	265.875
388.5000	-1.66664	0.0010035	0.0960048	265.939
388.0000	-1.57665	0.00100803	0.0960432	265.999
387.5000	-1.55065	0.00101468	0.0965076	266.064
387.0000	-1.69098	0.0010245	0.0972795	266.113
386.5000	-1.8052	0.00101754	0.09791	266.16
386.0000	-1.88476	0.0010141	0.0987177	266.206
385.5000	-1.81601	0.000997906	0.0995511	266.249
385.0000	-1.87526	0.000997513	0.100366	266.285
384.5000	-1.83935	0.000984044	0.101171	266.319
384.0000	-2.03465	0.000998527	0.102186	266.359
383.5000	-1.87696	0.00101077	0.102946	266.4
383.0000	-1.64861	0.00100705	0.103728	266.455
382.5000	-1.58714	0.00100629	0.104514	266.504
382.0000	-1.6298	0.0010118	0.105948	266.57
381.5000	-1.62293	0.00100399	0.10736	266.624
381.0000	-1.58027	0.00102241	0.108441	266.677
380.5000	-1.59589	0.00101743	0.109306	266.728
380.0000	-1.6032	0.00101732	0.11049	266.786
379.5000	-1.60553	0.0010171	0.111738	266.845
379.0000	-1.62751	0.00100599	0.112418	266.888
378.5000	-1.56696	0.00100724	0.113051	266.953
378.0000	-1.46209	0.00101262	0.113669	267.012
377.5000	-1.37325	0.00100436	0.114448	267.071
377.0000	-1.36009	0.001026	0.11483	267.096
376.5000	-1.27291	0.0010424	0.115589	267.132
376.0000	-1.3805	0.00104074	0.116256	267.152
375.5000	-1.15352	0.00103671	0.116635	267.165
375.0000	-1.16189	0.00103593	0.117088	267.175
374.5000	-1.36461	0.00103389	0.11749	267.174
374.0000	-1.40178	0.00103103	0.117985	267.177
373.5000	-1.46674	0.00102114	0.118258	267.169
373.0000	-1.40637	0.00100939	0.118292	267.16
372.5000	-1.38674	0.00101551	0.118495	267.158
372.0000	-1.23527	0.00101979	0.118665	267.148
371.5000	-1.23381	0.00101553	0.118869	267.149
371.0000	-1.32401	0.00100375	0.11936	267.16
370.5000	-1.18391	0.00101735	0.119934	267.172
370.0000	-1.22576	0.00101854	0.120259	267.177
369.5000	-1.21833	0.00101239	0.120511	267.183
369.0000	-1.18643	0.00102892	0.120839	267.196
368.5000	-1.25217	0.00101573	0.121498	267.233
368.0000	-1.37038	0.00100901	0.121854	267.268
367.5000	-1.41765	0.00100954	0.122506	267.322
367.0000	-1.31427	0.000991228	0.123438	267.387
366.5000	-1.09673	0.000991704	0.124214	267.465
366.0000	-1.09276	0.000994694	0.124858	267.544
365.5000	-0.965165	0.00100062	0.125401	267.615
365.0000	-0.765253	0.0010036	0.125915	267.695
364.5000	-0.854994	0.000993856	0.126645	267.774
364.0000	-0.68752	0.000990245	0.127277	267.861
363.5000	-0.566874	0.0009961	0.128149	267.942
363.0000	-0.436976	0.000998538	0.129017	268.027
362.5000	-0.353491	0.000998572	0.129625	268.102
362.0000	-0.179504	0.000990933	0.130361	268.19
361.5000	-0.115278	0.00101049	0.131318	268.282
361.0000	-0.0909061	0.00101537	0.132116	268.362
360.5000	-0.0613095	0.00100349	0.132746	268.448
360.0000	0.166233	0.00100453	0.133366	268.523
359.5000	0.400614	0.00100475	0.133952	268.603
359.0000	0.515422	0.0010017	0.134413	268.692
358.5000	0.42121	0.00101098	0.134566	268.765
358.0000	0.375227	0.000998314	0.134745	268.836
357.5000	0.463472	0.000998371	0.134883	268.905
357.0000	0.507433	0.000988654	0.1352	268.968
356.5000	0.4917	0.000993454	0.135836	269.031
356.0000	0.626568	0.000989113	0.136039	269.087
355.5000	0.534298	0.000969946	0.136296	269.151
355.0000	0.607872	0.000961059	0.136454	269.215
354.5000	0.58743	0.000967542	0.136464	269.269
354.0000	0.684656	0.000966512	0.136777	269.339
353.5000	0.685408	0.000972293	0.136933	269.395
353.0000	0.661028	0.000960491	0.137108	269.46
352.5000	0.667614	0.000953376	0.13749	269.541
352.0000	0.896008	0.000952813	0.137859	269.62
351.5000	0.95337	0.000954285	0.138182	269.691
351.0000	0.954399	0.000945524	0.138708	269.752
350.5000	1.08524	0.000947415	0.139239	269.802
350.0000	1.08455	0.000939733	0.139983	269.868
349.5000	1.00218	0.000938256	0.140773	269.93
349.0000	0.928322	0.000935792	0.141789	270.004
348.5000	0.990162	0.000936738	0.14284	270.075
348.0000	0.972551	0.000936493	0.143547	270.137
347.5000	0.956003	0.000949082	0.144556	270.201
347.0000	1.00385	0.000961784	0.145639	270.269
346.5000	0.925511	0.00095364	0.146504	270.335
346.0000	0.946281	0.000950875	0.147328	270.403
345.5000	0.934126	0.000946196	0.148198	270.461
345.0000	0.980944	0.000939644	0.149312	270.537
344.5000	1.15125	0.000940922	0.150264	270.598
344.0000	1.18846	0.000936307	0.151243	270.645
343.5000	1.08113	0.000934234	0.152064	270.702
343.0000	1.00599	0.000919535	0.152737	270.755
342.5000	1.13914	0.000928483	0.153385	270.819
342.0000	1.18715	0.000934533	0.154187	270.899
341.5000	1.23165	0.000936049	0.154954	270.967
341.0000	1.38637	0.000948229	0.15592	271.034
340.5000	1.48213	0.000943412	0.156592	271.101
340.0000	1.31633	0.000936977	0.157299	271.172
339.5000	1.35069	0.000921353	0.157892	271.257
339.0000	1.40889	0.000904588	0.15872	271.338
338.5000	1.49412	0.000901195	0.159612	271.418
338.0000	1.57755	0.000911566	0.160546	271.507
337.5000	1.5877	0.000919076	0.161429	271.6
337.0000	1.64221	0.000908805	0.162031	271.676
336.5000	1.64218	0.00090479	0.162778	271.747
336.0000	1.7072	0.000895636	0.16371	271.845
335.5000	1.79575	0.000907475	0.164575	271.937
335.0000	1.73214	0.000894192	0.165417	272.026
334.5000	1.8085	0.000893088	0.166403	272.137
334.0000	1.8099	0.000880603	0.167446	272.242
333.5000	1.87096	0.000877055	0.168744	272.339
333.0000	1.85821	0.000875811	0.169636	272.431
332.5000	1.69564	0.000850451	0.170356	272.533
332.0000	1.82772	0.000866306	0.171202	272.64
331.5000	1.97548	0.000864281	0.172379	272.757
331.0000	1.94219	0.000871669	0.173678	272.881
330.5000	1.92233	0.000869268	0.174649	272.996
330.0000	1.79614	0.000862983	0.175596	273.1
329.5000	1.76599	0.000851317	0.176532	273.205
329.0000	1.83627	0.000832962	0.177506	273.323
328.5000	1.91519	0.000839063	0.178632	273.442
328.0000	1.92101	0.000832526	0.179505	273.549
327.5000	1.80267	0.000823542	0.180472	273.646
327.0000	1.78723	0.000815839	0.18168	273.742
326.5000	1.83892	0.000830816	0.183176	273.86
326.0000	1.50074	0.000829539	0.184801	273.988
325.5000	1.40775	0.000823965	0.186279	274.122
325.0000	1.30862	0.000810959	0.187508	274.264
324.5000	1.49632	0.00080618	0.188905	274.408
324.0000	1.56891	0.00080523	0.190462	274.55
323.5000	1.46602	0.000787481	0.192288	274.705
323.0000	1.28101	0.000778356	0.193763	274.854
322.5000	1.22635	0.00077317	0.195253	275.008
322.0000	1.18783	0.0007822	0.196744	275.173
321.5000	1.25648	0.000777407	0.198424	275.335
321.0000	1.21493	0.000754273	0.200289	275.51
320.5000	1.27143	0.000750972	0.202127	275.676
320.0000	1.1076	0.000741254	0.203762	275.839
319.5000	0.984058	0.00073967	0.205526	276.013
319.0000	0.839174	0.000755765	0.207147	276.198
318.5000	0.817347	0.000729335	0.208776	276.393
318.0000	0.779927	0.000716942	0.21025	276.569
317.5000	0.978881	0.000704564	0.211719	276.726
317.0000	0.939375	0.000699036	0.213517	276.887
316.5000	0.841612	0.000694127	0.215358	277.037
316.0000	0.661958	0.000679944	0.217464	277.214
315.5000	0.679962	0.000676486	0.219268	277.396
315.0000	0.873139	0.000671502	0.221136	277.596
314.5000	0.728427	0.000648033	0.22306	277.8
314.0000	0.783578	0.000653382	0.225032	278
313.5000	0.817407	0.000637511	0.226903	278.187
313.0000	0.995919	0.000649509	0.229042	278.409
312.5000	0.913431	0.00064826	0.231127	278.637
312.0000	0.724084	0.000631059	0.233478	278.871
311.5000	0.646322	0.000621743	0.235734	279.108
311.0000	0.546077	0.000608235	0.238346	279.356
310.5000	0.509004	0.00059673	0.240919	279.64
310.0000	0.508793	0.000607767	0.243606	279.913
309.5000	0.290413	0.000590252	0.24653	280.206
309.0000	0.364156	0.000588462	0.24972	280.529
308.5000	0.392131	0.000575643	0.252927	280.884
308.0000	0.348051	0.000565981	0.256009	281.221
307.5000	0.316644	0.000554937	0.259772	281.616
307.0000	0.312323	0.000560016	0.263443	281.982
306.5000	0.192162	0.000556697	0.267656	282.399
306.0000	0.384642	0.000558969	0.272224	282.836
305.5000	0.225696	0.000550434	0.277011	283.321
305.0000	0.0937414	0.000537268	0.282082	283.82
304.5000	-0.275778	0.000530057	0.288017	284.386
304.0000	-0.150464	0.000524414	0.294333	284.981
303.5000	-0.295711	0.000525402	0.300811	285.592
303.0000	-0.400699	0.000535531	0.307779	286.272
302.5000	-0.286955	0.000524876	0.315145	286.996
302.0000	-0.473013	0.000522182	0.323145	287.76
301.5000	-0.579018	0.00051714	0.331397	288.547
301.0000	-0.460036	0.000517246	0.339851	289.374
300.5000	-0.66318	0.000505628	0.347531	290.13
300.0000	-0.691384	0.000499005	0.357155	291.045
299.5000	-0.841941	0.000497981	0.36633	291.931
299.0000	-0.883689	0.000500317	0.375484	292.831
298.5000	-1.18392	0.000486121	0.384933	293.773
298.0000	-1.20346	0.000465808	0.393779	294.648
297.5000	-1.36671	0.000463591	0.403071	295.563
297.0000	-1.48266	0.000452145	0.411701	296.372
296.5000	-1.55376	0.000451912	0.41987	297.159
296.0000	-1.40901	0.000453865	0.427769	297.925
295.5000	-1.55445	0.000461611	0.435714	298.671
295.0000	-1.58079	0.000460251	0.442993	299.337
294.5000	-1.87749	0.000457911	0.450207	300.011
294.0000	-1.87564	0.000462798	0.457141	300.701
293.5000	-1.77735	0.000453868	0.462545	301.258
293.0000	-1.99955	0.000459711	0.468313	301.845
292.5000	-2.11818	0.000464374	0.47383	302.429
292.0000	-2.4693	0.000482215	0.478556	302.95
291.5000	-2.61888	0.000475338	0.483078	303.438
291.0000	-2.70811	0.000470662	0.487479	303.913
290.5000	-2.78021	0.000464845	0.491985	304.393
290.0000	-2.67804	0.000501571	0.496262	304.831
289.5000	-2.81654	0.000519416	0.499987	305.245
289.0000	-3.01672	0.000540618	0.503481	305.643
288.5000	-3.22169	0.000550508	0.507241	306.08
288.0000	-3.67269	0.000544059	0.510921	306.513
287.5000	-3.83181	0.000546574	0.514846	306.982
287.0000	-4.24775	0.000535502	0.51847	307.463
286.5000	-4.38071	0.000546418	0.521919	307.947
286.0000	-4.44998	0.000561135	0.525416	308.4
285.5000	-4.44707	0.000574005	0.529278	308.838
285.0000	-4.77885	0.000591966	0.533291	309.297
284.5000	-5.11476	0.000591006	0.537003	309.727
284.0000	-5.00749	0.000593713	0.541165	310.202
283.5000	-5.14466	0.000595851	0.545438	310.676
283.0000	-5.54373	0.000615777	0.549513	311.135
282.5000	-5.6791	0.000644673	0.554047	311.638
282.0000	-6.03304	0.000647003	0.558545	312.171
281.5000	-6.27635	0.000619175	0.562976	312.7
281.0000	-6.55899	0.000618511	0.567791	313.249
280.5000	-6.62386	0.000622644	0.572979	313.86
280.0000	-6.94451	0.000646956	0.578506	314.502
279.5000	-7.09733	0.000647501	0.584366	315.189
279.0000	-7.33182	0.000653568	0.590114	315.874
278.5000	-7.56458	0.00065764	0.596779	316.647
278.0000	-7.74882	0.000641534	0.60453	317.493
277.5000	-7.92647	0.000652715	0.61207	318.316
277.0000	-8.50446	0.000658289	0.620394	319.251
276.5000	-8.52927	0.000673975	0.629036	320.236
276.0000	-8.76322	0.00069513	0.637422	321.181
275.5000	-9.11206	0.000713026	0.647513	322.286
275.0000	-9.14366	0.000726522	0.658322	323.474
274.5000	-9.22948	0.000730199	0.669784	324.754
274.0000	-9.67023	0.000729599	0.682281	326.18
273.5000	-10.0761	0.000725585	0.69448	327.537
273.0000	-10.6794	0.000757747	0.708285	329.068
272.5000	-11.1706	0.000771851	0.722796	330.689
272.0000	-11.8675	0.000795982	0.738092	332.417
271.5000	-12.3416	0.000793305	0.755095	334.341
271.0000	-12.8002	0.000808809	0.772541	336.285
270.5000	-13.3231	0.00080335	0.79122	338.353
270.0000	-13.8501	0.00082154	0.810602	340.544
269.5000	-14.607	0.00083493	0.830765	342.867
269.0000	-15.282	0.000844725	0.851045	345.199
268.5000	-16.0495	0.00084004	0.873726	347.802
268.0000	-16.8124	0.00084282	0.897927	350.58
267.5000	-17.5174	0.000844535	0.923198	353.503
267.0000	-18.3829	0.000841403	0.950762	356.747
266.5000	-19.2169	0.000828078	0.979318	360.15
266.0000	-19.8823	0.000822611	1.00654	363.364
265.5000	-21.0769	0.000818628	1.03632	366.873
265.0000	-21.7072	0.000814699	1.06793	370.672
264.5000	-22.4196	0.000780376	1.09828	374.38
264.0000	-23.0826	0.000807001	1.12888	378.149
263.5000	-23.6949	0.000799631	1.16137	382.154
263.0000	-24.3561	0.000789144	1.19071	385.808
262.5000	-24.6364	0.000798907	1.22246	389.843
262.0000	-24.8434	0.000778692	1.252	393.682
261.5000	-24.9016	0.000800492	1.28151	397.519
261.0000	-25.1311	0.00079423	1.30953	401.142
260.5000	-25.3638	0.000739258	1.3386	404.955
260.0000	-25.8249	0.000731279	1.36723	408.767
259.5000	-26.4021	0.000704984	1.3955	412.581
259.0000	-26.4524	0.000702643	1.42327	416.394
258.5000	-26.6606	0.000708954	1.4511	420.205
258.0000	-26.4139	0.000736684	1.47883	424.035
257.5000	-26.5807	0.000759925	1.50496	427.671
257.0000	-25.7163	0.000847523	1.53264	431.557
256.5000	-25.9324	0.000849627	1.559	435.278
256.0000	-25.9674	0.000855821	1.58714	439.254
255.5000	-26.6812	0.000798478	1.61561	443.287
255.0000	-26.1003	0.000773281	1.64422	447.385
254.5000	-26.3708	0.000749694	1.67151	451.324
254.0000	-26.8193	0.000749432	1.69889	455.297
253.5000	-27.6911	0.000701284	1.72958	459.715
253.0000	-27.0673	0.000609492	1.7571	463.738
252.5000	-27.1983	0.000617853	1.79687	469.666
252.0000	-26.9156	0.000589619	1.82891	474.475
251.5000	-25.968	0.000631856	1.85605	478.566
251.0000	-26.7375	0.000607247	1.88278	482.575
250.5000	-26.3	0.000529939	1.90834	486.474
250.0000	-27.276	0.000489564	1.93155	490.066
249.5000	-27.9465	0.000514846	1.95388	493.56
249.0000	-28.3092	0.000416688	1.97652	497.123
248.5000	-28.5527	0.000454489	1.99724	500.379
248.0000	-28.4705	0.000390261	2.01819	503.707
247.5000	-27.0338	0.000375029	2.03725	506.783
247.0000	-27.5077	0.000338568	2.0565	509.934
246.5000	-27.3984	0.000325672	2.07539	513.017
246.0000	-27.6145	0.000256377	2.09424	516.083
245.5000	-27.7539	0.000212536	2.11346	519.297
245.0000	-29.8011	0.000282604	2.13277	522.541
244.5000	-30.3876	0.000198061	2.15243	525.844
244.0000	-30.2852	0.000190924	2.17238	529.239
243.5000	-31.5592	0.000177017	2.1918	532.584
243.0000	-31.1351	7.97652E-005	2.21186	536.093
242.5000	-32.0592	2.64293E-006	2.23522	540.205
242.0000	-32.9081	3.55009E-005	2.25666	543.995
241.5000	-30.8584	-0.000119941	2.28191	548.477
241.0000	-30.595	-0.000239389	2.30636	552.838
240.5000	-32.2365	-0.000312001	2.33507	558.054
240.0000	-32.4611	-0.000527468	2.36309	563.164
239.5000	-32.8062	-0.000581141	2.39802	569.565
239.0000	-33.4332	-0.000591937	2.4309	575.593
238.5000	-36.2068	-0.000855883	2.46789	582.434
238.0000	-34.3687	-0.00084348	2.50954	590.253
237.5000	-32.7177	-0.000599827	2.54958	597.864
237.0000	-33.3694	-0.000691083	2.59442	606.464
236.5000	-31.4596	-0.000914279	2.64202	615.687
236.0000	-29.5077	-0.00109826	2.68975	625.023
235.5000	-28.2061	-0.00112877	2.7476	636.527
235.0000	-28.6493	-0.00131722	2.78875	644.818
234.5000	-30.3509	-0.0013237	2.83395	654.008
234.0000	-26.3526	-0.00127514	2.88344	664.172
233.5000	-26.2492	-0.00137523	2.94028	675.973
233.0000	-25.6609	-0.00123774	3.00079	688.75
232.5000	-25.4695	-0.00139652	3.0589	701.283
232.0000	-23.9621	-0.00142015	3.1264	716.161
231.5000	-23.7592	-0.00134089	3.18099	728.477
231.0000	-22.7045	-0.0015226	3.24068	742.217
230.5000	-23.9319	-0.00173066	3.29831	755.854
230.0000	-20.7251	-0.00147055	3.35072	768.626
229.5000	-18.958	-0.0013222	3.40321	781.714
229.0000	-20.1648	-0.00136321	3.45234	794.329
228.5000	-19.8415	-0.00119967	3.49792	806.336
228.0000	-17.8093	-0.000748239	3.53756	817.107
227.5000	-17.5164	-0.000909568	3.57501	827.759
227.0000	-15.5966	-0.000940504	3.60824	837.608
226.5000	-12.3935	-0.000744751	3.63856	847.037
226.0000	-9.15295	-0.000712916	3.66177	854.751
225.5000	-13.3174	-0.000751902	3.68194	862.015
225.0000	-8.61555	-0.000432815	3.69755	868.414
224.5000	-9.09369	-0.00051944	3.70898	873.946
224.0000	-8.41723	-0.000118417	3.71663	878.611
223.5000	-12.1464	-5.42168E-005	3.72121	882.505
223.0000	-7.62887	0.00022817	3.72303	885.725
222.5000	-6.94152	0.000287736	3.7212	888.757
222.0000	-1.56118	0.000665894	3.71644	890.823
221.5000	-1.40015	0.00051171	3.70947	892.536
221.0000	0.865793	0.000500905	3.7018	893.601
220.5000	0.577127	0.000174252	3.693	894.425
220.0000	0.793143	-5.88529E-005	3.68281	895.087

##### Extended Information
[Comments]
Sample name	JS187+JS190_5E-5_H2O_100-0
Comment
User
Division
Company	Labo systeme complexes hors equilibre

[Detailed Information]
Creation date	1/23/2024 12:09 PM

Data array type	Linear data array * 4
Horizontal axis	Wavelength [nm]
Vertical axis(1)	CD [mdeg]
Vertical axis(2)	LD [dOD]
Vertical axis(3)	Abs
Vertical axis(4)	HT [V]
Start	700 nm
End	220 nm
Data interval	0.5 nm
Data points	961     

[Measurement Information]
Instrument name	CD Jasco
Model name	J-1500
Serial No.	A005261638

Detector	PM-539
Detector S/N	A0052PM539
  Lock-in amp.	X mode
  HT volt	Auto

Detector	EXPML-535
Detector S/N	A0001
  Lock-in amp.	X mode
  HT volt	Auto

Measurement date	1/23/2024 12:09 PM

Overload detect	1
Photometric mode	CD, LD, Abs, HT
Measure range	700 - 220 nm
Data pitch	0.5 nm
CD scale	200 mdeg/1.0 dOD
FL scale	200 mdeg/1.0 dOD
D.I.T.	1 sec
Bandwidth	1.00 nm
Start mode	Immediately
Scanning speed	500 nm/min
Baseline correction	Baseline
Shutter control	Auto


