TITLE	JS187+JS190_5E-5_HEPES_ASPREP_100-0
DATA TYPE	
ORIGIN	JASCO
OWNER	
DATE	24/03/20
TIME	10:30:38
SPECTROMETER/DATA SYSTEM	
LOCALE	1033
RESOLUTION	
DELTAX	-0.5
XUNITS	NANOMETERS
YUNITS	CD [mdeg]
Y2UNITS	LD [dOD]
Y3UNITS	ABSORBANCE
Y4UNITS	HT [V]
FIRSTX	  700.0000
LASTX	  250.0000
NPOINTS	     901
FIRSTY	    -0.42765
MAXY	    18.26585
MINY	   -22.25781
XYDATA
700.0000	-0.427646	-0.000194291	0.0789041	308.204
699.5000	-0.256235	-0.000211272	0.0782252	307.871
699.0000	-0.25449	-0.000217749	0.077017	307.472
698.5000	-0.21457	-0.000221523	0.075475	307.021
698.0000	-0.128402	-0.000222041	0.0737272	306.526
697.5000	-0.0774737	-0.000198746	0.0721691	306.012
697.0000	-0.00794872	-0.000210932	0.0712564	305.463
696.5000	0.161984	-0.00021451	0.0705306	304.921
696.0000	0.214305	-0.000231594	0.0699425	304.323
695.5000	0.262563	-0.000224445	0.0694275	303.766
695.0000	0.248595	-0.00021935	0.0701882	303.297
694.5000	0.281408	-0.000215119	0.0717684	302.868
694.0000	0.496372	-0.000220259	0.0741167	302.491
693.5000	0.292248	-0.000218292	0.0767156	302.146
693.0000	0.473677	-0.000218357	0.0790452	301.863
692.5000	0.579487	-0.000231873	0.0816009	301.606
692.0000	0.819227	-0.000214643	0.0843371	301.388
691.5000	0.781378	-0.000213761	0.0867626	301.182
691.0000	0.861155	-0.000194648	0.0892609	300.993
690.5000	0.799428	-0.000200208	0.091312	300.832
690.0000	0.751347	-0.000183078	0.0931461	300.711
689.5000	0.876998	-0.000188282	0.0954483	300.657
689.0000	0.870789	-0.000164812	0.098415	300.692
688.5000	0.824074	-0.000165556	0.102449	300.847
688.0000	0.693718	-0.000150229	0.106901	301.1
687.5000	0.61551	-0.000130028	0.111375	301.404
687.0000	0.723773	-0.000122861	0.114242	301.69
686.5000	0.5768	-0.000103394	0.115732	301.97
686.0000	0.617552	-0.000109006	0.116089	302.22
685.5000	0.745916	-0.000104824	0.11571	302.477
685.0000	0.975526	-9.87632E-005	0.115068	302.716
684.5000	0.898973	-0.000100798	0.114543	302.947
684.0000	0.488306	-9.95453E-005	0.11402	303.183
683.5000	0.517531	-0.000111271	0.113571	303.425
683.0000	0.696001	-0.000127006	0.113121	303.691
682.5000	0.754684	-0.000140281	0.113112	303.983
682.0000	0.820631	-0.00013088	0.113289	304.299
681.5000	0.812127	-0.000131629	0.113654	304.598
681.0000	1.02678	-0.000149737	0.113333	304.857
680.5000	0.952282	-0.000169402	0.111837	305.024
680.0000	1.13926	-0.000150816	0.109212	305.112
679.5000	0.935721	-0.000139002	0.106395	305.151
679.0000	0.892696	-0.000147824	0.103962	305.149
678.5000	1.09083	-0.000153674	0.102027	305.126
678.0000	0.890696	-0.000170059	0.100951	305.107
677.5000	0.743161	-0.000171587	0.100919	305.085
677.0000	0.709326	-0.000182755	0.101064	305.06
676.5000	0.515056	-0.000180991	0.101519	305.045
676.0000	0.615803	-0.000168426	0.10191	305.029
675.5000	0.642925	-0.000162108	0.102579	305.031
675.0000	0.117874	-0.000154679	0.103291	305.047
674.5000	0.223965	-0.000141447	0.103824	305.066
674.0000	0.233982	-0.000128998	0.10479	305.09
673.5000	0.0910688	-0.000137836	0.105752	305.124
673.0000	0.155981	-0.000124592	0.106704	305.163
672.5000	0.0397444	-0.000124668	0.107794	305.223
672.0000	0.028431	-0.000108054	0.108693	305.292
671.5000	-0.0628776	-9.08942E-005	0.109379	305.347
671.0000	-0.195677	-0.000105635	0.109981	305.414
670.5000	-0.256055	-0.000108451	0.110577	305.486
670.0000	-0.0604075	-9.09201E-005	0.111352	305.569
669.5000	0.00476347	-7.62476E-005	0.111645	305.659
669.0000	0.0838885	-6.79256E-005	0.111834	305.747
668.5000	0.0725414	-6.81599E-005	0.112271	305.847
668.0000	-0.186229	-8.30673E-005	0.112763	305.963
667.5000	-0.291223	-7.50031E-005	0.113328	306.086
667.0000	0.0233527	-7.24275E-005	0.114007	306.221
666.5000	0.144044	-6.89936E-005	0.11467	306.356
666.0000	0.161818	-7.64194E-005	0.115274	306.491
665.5000	0.051096	-8.25175E-005	0.115687	306.626
665.0000	0.0487368	-8.51539E-005	0.115929	306.768
664.5000	0.151343	-9.45494E-005	0.115886	306.879
664.0000	0.529228	-8.63143E-005	0.115702	306.978
663.5000	0.636714	-0.000115022	0.115866	307.085
663.0000	0.874353	-0.000135675	0.115705	307.169
662.5000	0.915927	-0.00012285	0.115277	307.244
662.0000	0.820913	-0.00012758	0.114765	307.308
661.5000	0.861422	-0.000136639	0.114363	307.353
661.0000	0.851465	-0.000155752	0.114268	307.4
660.5000	1.20326	-0.000147719	0.114078	307.419
660.0000	1.29717	-0.000144797	0.113705	307.427
659.5000	1.60354	-0.000136971	0.113396	307.419
659.0000	1.39058	-0.000148624	0.113178	307.374
658.5000	1.19318	-0.000160912	0.112999	307.311
658.0000	1.24064	-0.000174123	0.112472	307.218
657.5000	1.46386	-0.000157858	0.111894	307.113
657.0000	1.59653	-0.000170147	0.1114	306.981
656.5000	1.67851	-0.000164744	0.111209	306.83
656.0000	1.60601	-0.000171818	0.111061	306.683
655.5000	1.50773	-0.000185434	0.110673	306.506
655.0000	1.42892	-0.000161671	0.110649	306.328
654.5000	1.30678	-0.000145175	0.111707	306.169
654.0000	1.28791	-0.000151236	0.112935	306.019
653.5000	1.42841	-0.000142133	0.114112	305.891
653.0000	1.47457	-0.000122232	0.115453	305.789
652.5000	1.4698	-0.00013241	0.117239	305.715
652.0000	1.6538	-0.000127538	0.119336	305.681
651.5000	1.60267	-0.000146236	0.121579	305.681
651.0000	1.84217	-0.000145708	0.123082	305.7
650.5000	1.97449	-0.00012442	0.12474	305.762
650.0000	1.983	-0.000131731	0.126138	305.856
649.5000	2.04197	-0.000115697	0.128515	305.987
649.0000	2.07447	-0.000117299	0.130415	306.122
648.5000	1.95285	-0.000102427	0.132376	306.296
648.0000	2.25333	-0.000100877	0.13421	306.488
647.5000	2.32757	-0.000108872	0.135876	306.692
647.0000	2.49169	-0.000107235	0.137443	306.915
646.5000	2.44662	-0.00012833	0.138375	307.14
646.0000	2.37676	-0.00013296	0.13861	307.346
645.5000	2.39759	-0.000125814	0.138632	307.537
645.0000	2.11663	-0.000132467	0.139095	307.702
644.5000	2.11936	-0.000128211	0.139369	307.849
644.0000	2.1843	-0.000136213	0.139238	307.966
643.5000	2.33789	-0.000133126	0.138892	308.057
643.0000	2.18483	-0.000140626	0.138748	308.109
642.5000	2.18168	-0.000115654	0.13932	308.163
642.0000	2.31487	-0.000130478	0.14011	308.207
641.5000	2.2664	-0.000118216	0.140616	308.237
641.0000	2.19475	-0.000114252	0.140665	308.252
640.5000	2.24098	-0.000143601	0.141149	308.259
640.0000	2.16967	-0.000158116	0.141835	308.261
639.5000	1.96325	-0.000164208	0.142706	308.252
639.0000	2.11187	-0.000178645	0.143876	308.254
638.5000	2.38168	-0.000172084	0.145216	308.252
638.0000	2.47804	-0.000165122	0.146931	308.25
637.5000	2.76267	-0.000171549	0.148864	308.244
637.0000	3.01865	-0.000195371	0.150695	308.246
636.5000	3.00296	-0.000212786	0.152117	308.253
636.0000	2.82048	-0.000221062	0.153662	308.276
635.5000	2.71046	-0.000225314	0.155561	308.311
635.0000	2.96878	-0.000227175	0.157303	308.355
634.5000	3.12331	-0.000253236	0.158481	308.394
634.0000	3.24409	-0.000271966	0.15958	308.442
633.5000	3.47194	-0.000270148	0.161073	308.483
633.0000	3.6184	-0.000280021	0.162938	308.539
632.5000	3.44918	-0.000298085	0.16502	308.615
632.0000	3.65595	-0.000298104	0.166639	308.695
631.5000	3.93129	-0.000306315	0.168297	308.773
631.0000	4.01858	-0.000286775	0.170176	308.858
630.5000	3.85504	-0.000285708	0.172116	308.938
630.0000	4.08902	-0.000300515	0.17393	309.021
629.5000	3.96163	-0.000297747	0.175548	309.103
629.0000	4.27055	-0.000306939	0.177265	309.19
628.5000	4.32047	-0.000301089	0.179091	309.276
628.0000	4.64239	-0.00028571	0.180904	309.344
627.5000	4.62151	-0.000315176	0.18268	309.415
627.0000	4.55241	-0.000316836	0.184054	309.482
626.5000	4.51652	-0.00031994	0.185939	309.564
626.0000	4.46768	-0.000323824	0.188392	309.652
625.5000	4.58457	-0.000323153	0.190971	309.755
625.0000	4.68316	-0.000341185	0.193239	309.872
624.5000	4.92909	-0.000321107	0.195474	310
624.0000	4.80648	-0.000335236	0.198224	310.152
623.5000	4.68076	-0.000331617	0.201098	310.296
623.0000	4.57358	-0.000360404	0.203594	310.455
622.5000	4.56437	-0.000374012	0.205671	310.623
622.0000	4.56375	-0.000393815	0.207945	310.811
621.5000	4.32303	-0.000408601	0.210258	311.004
621.0000	4.45549	-0.000430884	0.212963	311.224
620.5000	4.32632	-0.000428076	0.21519	311.43
620.0000	4.31707	-0.000445594	0.217496	311.657
619.5000	4.21821	-0.000481526	0.220155	311.959
619.0000	4.28503	-0.000448631	0.222853	312.257
618.5000	4.50302	-0.000471303	0.225578	312.573
618.0000	4.49433	-0.000475632	0.228298	312.893
617.5000	4.33913	-0.000472989	0.230619	313.221
617.0000	4.29628	-0.000465663	0.232965	313.543
616.5000	4.23297	-0.000484627	0.235182	313.835
616.0000	4.46829	-0.000499	0.237098	314.113
615.5000	4.56136	-0.000495696	0.238849	314.404
615.0000	4.57165	-0.000480604	0.240553	314.695
614.5000	4.69526	-0.000479473	0.242458	314.98
614.0000	5.04796	-0.000469255	0.244388	315.253
613.5000	4.92152	-0.000479538	0.24628	315.537
613.0000	4.91489	-0.000468458	0.247731	315.824
612.5000	4.87391	-0.00049909	0.249618	316.112
612.0000	4.77126	-0.000499808	0.251713	316.397
611.5000	4.96648	-0.000502162	0.253926	316.666
611.0000	4.96819	-0.000507889	0.255807	316.93
610.5000	5.0025	-0.000510132	0.257634	317.193
610.0000	4.85523	-0.000536227	0.259207	317.422
609.5000	4.99966	-0.000534169	0.260864	317.657
609.0000	4.98297	-0.000560561	0.262694	317.881
608.5000	4.87699	-0.000570348	0.26464	318.107
608.0000	4.85471	-0.000569603	0.266681	318.319
607.5000	4.6429	-0.000571103	0.268669	318.526
607.0000	4.91921	-0.000567637	0.270867	318.744
606.5000	4.93361	-0.000576297	0.273134	318.96
606.0000	4.86618	-0.000581005	0.275322	319.163
605.5000	5.13616	-0.0005905	0.277844	319.371
605.0000	5.1802	-0.000609136	0.280407	319.572
604.5000	5.05736	-0.000594473	0.2826	319.756
604.0000	5.30958	-0.000598053	0.284496	319.928
603.5000	5.40416	-0.00059628	0.286362	320.091
603.0000	5.29822	-0.000618011	0.28859	320.261
602.5000	4.91687	-0.00063623	0.291036	320.437
602.0000	4.49294	-0.000663627	0.293339	320.591
601.5000	4.49786	-0.000673091	0.295781	320.753
601.0000	4.37402	-0.000651237	0.298305	320.91
600.5000	4.27079	-0.000671823	0.300835	321.055
600.0000	4.0924	-0.000677827	0.303585	321.204
599.5000	3.93312	-0.000693549	0.305971	321.352
599.0000	4.09392	-0.000702273	0.308058	321.484
598.5000	4.13777	-0.00072636	0.310521	321.603
598.0000	4.05885	-0.000741297	0.313329	321.723
597.5000	4.06582	-0.0007456	0.316002	321.829
597.0000	3.93681	-0.000759207	0.318505	321.937
596.5000	4.22496	-0.000769256	0.321247	322.044
596.0000	4.29905	-0.000773759	0.324353	322.152
595.5000	4.30811	-0.000787716	0.327575	322.26
595.0000	4.37855	-0.000797099	0.330478	322.35
594.5000	4.31852	-0.000763532	0.33359	322.455
594.0000	4.68344	-0.000763673	0.337047	322.579
593.5000	4.78438	-0.000774952	0.340809	322.703
593.0000	4.79935	-0.000792737	0.344434	322.829
592.5000	4.69748	-0.000796456	0.348116	322.991
592.0000	4.66941	-0.000823076	0.351601	323.164
591.5000	4.59192	-0.000833096	0.355188	323.318
591.0000	4.54794	-0.000851237	0.359472	323.493
590.5000	4.49638	-0.000836987	0.363631	323.699
590.0000	4.51862	-0.000805795	0.36755	323.918
589.5000	4.52926	-0.000803132	0.371509	324.154
589.0000	4.48297	-0.000817273	0.375789	324.411
588.5000	4.4631	-0.000812539	0.380567	324.694
588.0000	4.35723	-0.000826682	0.385465	324.995
587.5000	4.22078	-0.000836271	0.390561	325.343
587.0000	4.28481	-0.000847231	0.395793	325.741
586.5000	4.12623	-0.000863855	0.400806	326.115
586.0000	4.16485	-0.000887439	0.406006	326.506
585.5000	4.27309	-0.000875878	0.410867	326.914
585.0000	4.61025	-0.000872866	0.416001	327.345
584.5000	4.77017	-0.000866339	0.421098	327.762
584.0000	5.17394	-0.000870446	0.426718	328.229
583.5000	5.02961	-0.000864348	0.43271	328.729
583.0000	5.34289	-0.0008625	0.439136	329.288
582.5000	5.68163	-0.000864553	0.44568	329.867
582.0000	5.91109	-0.000902772	0.452706	330.457
581.5000	6.08706	-0.000931721	0.460186	331.097
581.0000	6.44158	-0.000938624	0.467759	331.756
580.5000	6.74191	-0.000918752	0.474997	332.43
580.0000	6.91579	-0.000914762	0.482402	333.116
579.5000	7.45438	-0.000910987	0.489685	333.82
579.0000	7.59504	-0.000902392	0.497565	334.528
578.5000	8.19005	-0.000890692	0.505938	335.251
578.0000	8.54168	-0.000893566	0.514411	336.023
577.5000	8.7332	-0.000876644	0.523479	336.858
577.0000	9.12801	-0.000906699	0.532746	337.69
576.5000	9.51081	-0.000905701	0.542933	338.593
576.0000	9.71884	-0.000882605	0.552564	339.474
575.5000	10.0986	-0.00089388	0.562832	340.416
575.0000	10.5125	-0.000906235	0.57231	341.302
574.5000	10.5647	-0.000886713	0.582713	342.26
574.0000	11.2189	-0.000868308	0.593081	343.208
573.5000	11.5084	-0.000827743	0.603074	344.17
573.0000	11.8763	-0.000829618	0.613849	345.222
572.5000	12.1816	-0.000835624	0.62421	346.22
572.0000	12.4575	-0.000823741	0.635976	347.343
571.5000	12.53	-0.000800216	0.647713	348.436
571.0000	12.9649	-0.000784794	0.659851	349.58
570.5000	13.634	-0.000780294	0.67202	350.772
570.0000	14.1192	-0.000786718	0.683546	351.93
569.5000	14.6365	-0.000736873	0.695833	353.14
569.0000	14.8031	-0.000749819	0.707926	354.334
568.5000	15.2013	-0.000711066	0.719294	355.476
568.0000	15.3971	-0.000692752	0.730985	356.648
567.5000	16.2374	-0.000665714	0.742774	357.822
567.0000	16.6043	-0.000637741	0.754041	358.943
566.5000	17.1344	-0.000635458	0.76505	360.024
566.0000	17.2625	-0.000646809	0.775534	361.077
565.5000	17.1607	-0.000640032	0.785802	362.106
565.0000	17.4772	-0.000633912	0.795806	363.069
564.5000	17.3298	-0.000643244	0.805554	364.008
564.0000	17.4484	-0.000676446	0.814387	364.849
563.5000	18.0307	-0.000672826	0.822879	365.658
563.0000	18.2659	-0.000699064	0.831244	366.473
562.5000	18.0278	-0.000702758	0.838733	367.178
562.0000	17.7222	-0.000714877	0.845973	367.843
561.5000	17.2637	-0.000770818	0.853467	368.5
561.0000	17.2109	-0.00078884	0.860221	369.088
560.5000	16.9648	-0.000800188	0.866205	369.613
560.0000	16.7661	-0.000838218	0.87174	370.094
559.5000	16.3944	-0.000830076	0.876617	370.476
559.0000	15.912	-0.000844605	0.880515	370.757
558.5000	15.7737	-0.000871292	0.883562	370.969
558.0000	15.3497	-0.000869886	0.885943	371.116
557.5000	15.5988	-0.000885727	0.88804	371.202
557.0000	15.2015	-0.000899002	0.889699	371.222
556.5000	15.1312	-0.000902105	0.890547	371.17
556.0000	14.9232	-0.000892013	0.891045	371.07
555.5000	14.8779	-0.000877863	0.89078	370.908
555.0000	14.633	-0.00088426	0.890015	370.667
554.5000	14.1221	-0.000879918	0.888873	370.391
554.0000	14.0496	-0.000905296	0.887161	370.054
553.5000	13.9871	-0.000919929	0.885277	369.692
553.0000	13.634	-0.000925993	0.883201	369.311
552.5000	13.3629	-0.000941275	0.880861	368.904
552.0000	13.521	-0.000930216	0.878271	368.426
551.5000	13.0496	-0.000932575	0.875369	367.969
551.0000	12.3363	-0.000987031	0.872328	367.493
550.5000	12.2347	-0.000984139	0.869167	366.986
550.0000	12.1473	-0.00101225	0.865842	366.456
549.5000	11.9276	-0.00101837	0.862584	365.932
549.0000	11.5727	-0.00100822	0.859397	365.431
548.5000	11.6809	-0.00103781	0.856397	364.965
548.0000	11.5613	-0.00103228	0.853311	364.474
547.5000	11.3401	-0.00106984	0.850516	364.023
547.0000	10.7433	-0.00109285	0.847888	363.571
546.5000	10.7794	-0.00110727	0.845882	363.181
546.0000	10.888	-0.00109165	0.844049	362.831
545.5000	10.5606	-0.00108592	0.842427	362.503
545.0000	10.7886	-0.00106055	0.840927	362.249
544.5000	11.068	-0.00103237	0.839855	362.001
544.0000	10.7882	-0.00105242	0.839181	361.816
543.5000	10.7256	-0.0010358	0.838679	361.655
543.0000	10.6629	-0.0010387	0.83872	361.537
542.5000	11.018	-0.00100089	0.839048	361.463
542.0000	11.1063	-0.00102251	0.840145	361.434
541.5000	11.5285	-0.00100758	0.841582	361.47
541.0000	11.5669	-0.000992295	0.84333	361.539
540.5000	11.5334	-0.00101456	0.845427	361.638
540.0000	11.6675	-0.000997519	0.847908	361.769
539.5000	11.5439	-0.000982287	0.850904	361.972
539.0000	11.9182	-0.000946746	0.854335	362.233
538.5000	12.264	-0.00091753	0.858076	362.536
538.0000	12.3156	-0.000933968	0.86188	362.85
537.5000	12.5075	-0.000927752	0.866216	363.209
537.0000	12.583	-0.000960287	0.871248	363.614
536.5000	13.0542	-0.000948294	0.876189	364.029
536.0000	13.5387	-0.000921667	0.881586	364.503
535.5000	14.0958	-0.000920457	0.887053	364.988
535.0000	14.4217	-0.000932894	0.893295	365.528
534.5000	14.5708	-0.000939116	0.8997	366.049
534.0000	14.8951	-0.000923779	0.906019	366.613
533.5000	15.0567	-0.000948871	0.912588	367.215
533.0000	14.9472	-0.000957567	0.919083	367.794
532.5000	15.3498	-0.000935143	0.926013	368.412
532.0000	15.3572	-0.000919485	0.933195	369.062
531.5000	15.79	-0.000927013	0.940523	369.724
531.0000	15.8023	-0.000947621	0.948051	370.414
530.5000	15.629	-0.000967306	0.955386	371.085
530.0000	15.9782	-0.00096154	0.963199	371.78
529.5000	15.8644	-0.000965459	0.97044	372.452
529.0000	15.549	-0.000980586	0.977389	373.088
528.5000	15.7412	-0.0010131	0.984232	373.722
528.0000	15.6443	-0.00102931	0.990828	374.337
527.5000	15.37	-0.00105612	0.997543	374.943
527.0000	14.5786	-0.00106868	1.00492	375.595
526.5000	14.5497	-0.00107701	1.01178	376.213
526.0000	14.2939	-0.00109306	1.01881	376.846
525.5000	13.9533	-0.00110353	1.02555	377.435
525.0000	13.9036	-0.00110527	1.0319	378.014
524.5000	13.645	-0.0011169	1.03784	378.535
524.0000	13.0401	-0.00116763	1.04307	378.988
523.5000	12.2088	-0.00122894	1.04838	379.46
523.0000	11.8373	-0.00127759	1.05375	379.908
522.5000	11.4872	-0.00130446	1.05879	380.317
522.0000	11.2949	-0.00135281	1.06373	380.724
521.5000	11.0151	-0.00136061	1.0684	381.122
521.0000	10.9654	-0.00139739	1.07265	381.473
520.5000	10.8668	-0.00139578	1.07671	381.803
520.0000	10.2543	-0.00140919	1.08042	382.086
519.5000	10.0378	-0.00143129	1.08389	382.342
519.0000	9.49013	-0.00146137	1.08751	382.592
518.5000	9.77343	-0.0014987	1.09063	382.816
518.0000	9.28283	-0.00155382	1.09384	383.051
517.5000	9.09626	-0.00159552	1.097	383.28
517.0000	9.02549	-0.00158499	1.10034	383.49
516.5000	8.40349	-0.00164503	1.10332	383.691
516.0000	7.94118	-0.00169167	1.10613	383.879
515.5000	7.91111	-0.00175275	1.10886	384.074
515.0000	7.73339	-0.00177418	1.11122	384.24
514.5000	8.04724	-0.00177668	1.11347	384.398
514.0000	7.64499	-0.00180326	1.11554	384.535
513.5000	6.90619	-0.00183029	1.11761	384.657
513.0000	6.46563	-0.00185789	1.11966	384.771
512.5000	5.75196	-0.00189985	1.1218	384.923
512.0000	5.44452	-0.001901	1.12384	385.039
511.5000	4.85498	-0.0019384	1.12583	385.163
511.0000	4.41321	-0.00198229	1.12751	385.259
510.5000	4.50978	-0.00199685	1.12919	385.352
510.0000	4.16404	-0.00198185	1.13079	385.429
509.5000	4.01652	-0.00201718	1.13231	385.484
509.0000	3.76201	-0.00201486	1.13357	385.514
508.5000	3.29985	-0.00205208	1.13453	385.502
508.0000	3.673	-0.00207148	1.1358	385.496
507.5000	3.47904	-0.00208373	1.13716	385.491
507.0000	3.37306	-0.00203606	1.13854	385.489
506.5000	3.10553	-0.00204025	1.13991	385.489
506.0000	2.61386	-0.00204408	1.1408	385.476
505.5000	2.19133	-0.0020305	1.14149	385.45
505.0000	2.31383	-0.00202056	1.14223	385.439
504.5000	2.40071	-0.00201875	1.143	385.394
504.0000	2.63751	-0.00203894	1.14374	385.321
503.5000	2.60509	-0.00205595	1.14396	385.23
503.0000	2.61269	-0.00205376	1.14415	385.126
502.5000	2.54574	-0.00204362	1.1444	385.02
502.0000	2.0427	-0.00205777	1.14427	384.897
501.5000	1.91578	-0.00209083	1.14393	384.74
501.0000	1.56812	-0.00208	1.14363	384.576
500.5000	1.08631	-0.00208797	1.14305	384.367
500.0000	0.933351	-0.00208716	1.14233	384.094
499.5000	0.624754	-0.00207857	1.14089	383.732
499.0000	0.0922102	-0.00209544	1.13848	383.211
498.5000	-0.32637	-0.00215708	1.13561	382.559
498.0000	-0.868937	-0.00218173	1.13262	381.789
497.5000	-1.61752	-0.00220997	1.13004	380.879
497.0000	-1.86101	-0.00224412	1.12833	379.985
496.5000	-2.72967	-0.00227387	1.12835	379.175
496.0000	-3.45342	-0.00229923	1.12964	378.62
495.5000	-4.00219	-0.00231218	1.13065	378.212
495.0000	-4.52278	-0.0023488	1.13028	377.85
494.5000	-5.26384	-0.00236537	1.12911	377.489
494.0000	-5.72306	-0.00238751	1.12778	377.152
493.5000	-6.51408	-0.00240386	1.12629	376.779
493.0000	-7.36407	-0.00241795	1.12485	376.449
492.5000	-7.55544	-0.00245836	1.12335	376.104
492.0000	-8.16725	-0.00247187	1.12176	375.763
491.5000	-8.78485	-0.00249332	1.1202	375.47
491.0000	-9.58896	-0.00252807	1.11868	375.215
490.5000	-10.01	-0.00253588	1.11738	374.998
490.0000	-10.3182	-0.00255894	1.11595	374.823
489.5000	-10.8692	-0.00258523	1.11422	374.675
489.0000	-11.4217	-0.00259721	1.11144	374.481
488.5000	-11.5976	-0.00262387	1.10694	374.116
488.0000	-12.3744	-0.00264826	1.10101	373.48
487.5000	-12.8991	-0.00267051	1.09547	372.647
487.0000	-13.3228	-0.00270354	1.09087	371.757
486.5000	-13.8461	-0.00269972	1.08617	370.717
486.0000	-14.088	-0.00272787	1.08238	369.72
485.5000	-14.3197	-0.00275005	1.08022	368.832
485.0000	-14.7799	-0.00279685	1.07906	368.069
484.5000	-15.4711	-0.00278869	1.07738	367.419
484.0000	-15.9773	-0.00280671	1.0746	366.822
483.5000	-16.2592	-0.00280971	1.07137	366.288
483.0000	-16.3241	-0.00282282	1.06757	365.747
482.5000	-16.7963	-0.00280773	1.06434	365.292
482.0000	-17.1469	-0.00281611	1.06094	364.887
481.5000	-17.3194	-0.00282849	1.0572	364.488
481.0000	-17.6243	-0.0028337	1.05331	364.117
480.5000	-17.6643	-0.00282987	1.04968	363.776
480.0000	-17.7629	-0.00284529	1.04565	363.418
479.5000	-17.7851	-0.00284503	1.0401	362.953
479.0000	-17.9901	-0.00284925	1.032	362.189
478.5000	-18.2644	-0.00283618	1.02401	361.217
478.0000	-18.2945	-0.00284125	1.01876	360.213
477.5000	-18.6632	-0.00283448	1.01714	359.507
477.0000	-18.8949	-0.00283858	1.01455	358.918
476.5000	-18.7664	-0.00280204	1.00686	358.025
476.0000	-18.7471	-0.00281601	0.997745	356.894
475.5000	-19.2183	-0.002821	0.988738	355.531
475.0000	-19.6668	-0.00281699	0.980297	353.971
474.5000	-19.899	-0.00282336	0.972741	352.348
474.0000	-20.0395	-0.00281473	0.964714	350.564
473.5000	-20.5596	-0.00281703	0.956056	348.515
473.0000	-20.8639	-0.00276855	0.948152	346.336
472.5000	-20.9272	-0.00278096	0.94262	344.219
472.0000	-21.331	-0.00276502	0.940238	342.574
471.5000	-21.5078	-0.00275122	0.938912	341.324
471.0000	-21.5175	-0.00273692	0.937616	340.617
470.5000	-21.6428	-0.00271215	0.936786	340.25
470.0000	-21.6883	-0.00270133	0.933936	340.066
469.5000	-21.7408	-0.00269382	0.926233	339.654
469.0000	-21.6196	-0.00267159	0.913853	338.69
468.5000	-21.9221	-0.00268602	0.903484	337.487
468.0000	-22.0888	-0.00264261	0.896351	336.328
467.5000	-22.2098	-0.00263736	0.891764	335.438
467.0000	-22.2578	-0.00263589	0.888499	334.828
466.5000	-22.2086	-0.00261363	0.884988	334.437
466.0000	-22.1833	-0.00258748	0.880926	334.241
465.5000	-22.1831	-0.00256059	0.876604	334.274
465.0000	-22.1892	-0.00255241	0.871656	334.561
464.5000	-22.1284	-0.00253921	0.863978	334.848
464.0000	-22.0968	-0.00251207	0.852747	334.79
463.5000	-21.9187	-0.00248664	0.840028	334.311
463.0000	-21.9379	-0.00247639	0.828441	333.58
462.5000	-21.7287	-0.00244343	0.81904	332.792
462.0000	-21.895	-0.0024278	0.811026	332.019
461.5000	-21.907	-0.00239213	0.803863	331.379
461.0000	-21.8491	-0.00237288	0.797424	330.902
460.5000	-21.5922	-0.00231669	0.790337	330.534
460.0000	-21.2698	-0.00230552	0.782985	330.235
459.5000	-21.129	-0.00229438	0.774996	329.947
459.0000	-20.9312	-0.00225735	0.765155	329.515
458.5000	-20.9672	-0.00222811	0.754976	328.96
458.0000	-20.7841	-0.00221169	0.744121	328.196
457.5000	-20.3496	-0.00217422	0.733133	327.209
457.0000	-20.1881	-0.00214627	0.723641	326.151
456.5000	-19.9942	-0.00209998	0.716169	325.203
456.0000	-19.806	-0.00207132	0.707225	324.231
455.5000	-19.6089	-0.00204235	0.695436	322.973
455.0000	-19.4714	-0.00199631	0.685671	321.727
454.5000	-19.2375	-0.00194037	0.679601	320.727
454.0000	-19.0836	-0.0019321	0.673495	319.958
453.5000	-18.4523	-0.00189305	0.665071	319.247
453.0000	-18.0947	-0.00188117	0.656281	318.53
452.5000	-18.073	-0.00186218	0.647614	317.786
452.0000	-18.0256	-0.00183917	0.638694	317.014
451.5000	-18.0267	-0.00178026	0.629804	316.209
451.0000	-17.6004	-0.00175026	0.621243	315.426
450.5000	-17.2659	-0.00172384	0.612452	314.604
450.0000	-16.9245	-0.00169261	0.604754	313.872
449.5000	-16.5541	-0.00166209	0.59846	313.322
449.0000	-16.5438	-0.00165123	0.592213	312.907
448.5000	-16.2601	-0.00162264	0.583367	312.367
448.0000	-15.8473	-0.00159607	0.574556	311.741
447.5000	-15.6088	-0.00156243	0.568807	311.296
447.0000	-15.2148	-0.00155339	0.564424	311.11
446.5000	-14.945	-0.00152707	0.557736	310.923
446.0000	-14.6021	-0.00153209	0.547223	310.436
445.5000	-14.1777	-0.00149453	0.537174	309.712
445.0000	-13.9302	-0.00144795	0.528671	308.879
444.5000	-13.4216	-0.00141632	0.52056	308.043
444.0000	-12.961	-0.00137811	0.512867	307.18
443.5000	-12.4591	-0.00136522	0.505338	306.267
443.0000	-12.4115	-0.00133475	0.499207	305.487
442.5000	-12.1855	-0.00130672	0.493231	304.75
442.0000	-11.8296	-0.00128966	0.487999	304.126
441.5000	-11.7054	-0.00125655	0.481868	303.46
441.0000	-11.5553	-0.00123596	0.475981	302.835
440.5000	-11.3653	-0.0012183	0.469935	302.213
440.0000	-11.1084	-0.00118718	0.463539	301.571
439.5000	-10.875	-0.00115986	0.45716	300.929
439.0000	-10.6356	-0.00114267	0.450252	300.247
438.5000	-10.5079	-0.00110425	0.443082	299.545
438.0000	-10.192	-0.00106209	0.435995	298.869
437.5000	-10.0093	-0.00101654	0.429179	298.208
437.0000	-9.60658	-0.000995132	0.422307	297.549
436.5000	-9.60573	-0.000966448	0.416493	296.989
436.0000	-9.51784	-0.000961519	0.411459	296.508
435.5000	-9.11794	-0.000929414	0.406181	296.043
435.0000	-8.76908	-0.000885073	0.400041	295.549
434.5000	-8.63937	-0.000856477	0.393528	295.036
434.0000	-8.36628	-0.000817518	0.387288	294.512
433.5000	-7.95448	-0.000779872	0.381509	293.987
433.0000	-7.69828	-0.000757342	0.375703	293.435
432.5000	-7.44948	-0.000731817	0.370297	292.905
432.0000	-7.11957	-0.000702446	0.364866	292.352
431.5000	-6.84908	-0.000679344	0.35928	291.787
431.0000	-6.56102	-0.000647576	0.353597	291.23
430.5000	-6.23917	-0.000618228	0.348116	290.674
430.0000	-6.07963	-0.000605275	0.343151	290.145
429.5000	-5.91384	-0.000590906	0.337749	289.585
429.0000	-5.53156	-0.000562354	0.332399	289.022
428.5000	-5.24679	-0.000544669	0.327427	288.473
428.0000	-4.96373	-0.000522753	0.322264	287.894
427.5000	-4.71417	-0.000492665	0.317483	287.379
427.0000	-4.62465	-0.000481	0.312637	286.869
426.5000	-4.4763	-0.000453532	0.30774	286.352
426.0000	-4.04782	-0.000435861	0.302867	285.798
425.5000	-4.00739	-0.000429943	0.297984	285.225
425.0000	-3.91518	-0.000419693	0.292922	284.616
424.5000	-3.69962	-0.00039596	0.288156	283.983
424.0000	-3.41255	-0.00037643	0.284375	283.406
423.5000	-3.34937	-0.000359977	0.280907	282.898
423.0000	-3.15244	-0.000343711	0.277109	282.432
422.5000	-2.94199	-0.000331325	0.273536	282.012
422.0000	-2.7749	-0.00032014	0.269971	281.608
421.5000	-2.58414	-0.000301288	0.266294	281.234
421.0000	-2.37648	-0.000279294	0.262733	280.876
420.5000	-2.14458	-0.000272686	0.259168	280.505
420.0000	-2.06515	-0.000250582	0.255536	280.136
419.5000	-1.87664	-0.000234246	0.251757	279.753
419.0000	-1.68249	-0.00021415	0.248391	279.387
418.5000	-1.59716	-0.000202544	0.245412	279.067
418.0000	-1.35472	-0.000206924	0.24283	278.766
417.5000	-1.24718	-0.000196325	0.240356	278.471
417.0000	-0.955791	-0.000170783	0.238027	278.205
416.5000	-0.667121	-0.000155106	0.236218	278.022
416.0000	-0.578658	-0.000154514	0.233952	277.859
415.5000	-0.300207	-0.00014872	0.230976	277.653
415.0000	-0.166821	-0.000134553	0.228311	277.416
414.5000	-0.0103652	-0.000125983	0.225936	277.142
414.0000	-0.0694924	-0.000112626	0.223644	276.88
413.5000	0.161577	-0.000100742	0.221205	276.593
413.0000	0.320571	-8.54367E-005	0.219377	276.35
412.5000	0.24712	-6.51213E-005	0.21764	276.142
412.0000	0.241417	-5.70798E-005	0.216057	275.951
411.5000	0.359119	-6.07535E-005	0.214623	275.767
411.0000	0.511278	-6.43341E-005	0.213189	275.604
410.5000	0.531596	-4.26734E-005	0.211816	275.451
410.0000	0.577147	-4.89221E-005	0.210543	275.32
409.5000	0.598881	-2.33207E-005	0.209458	275.201
409.0000	0.646713	-1.23718E-005	0.208276	275.098
408.5000	0.483075	-1.72589E-005	0.206968	275
408.0000	0.410466	-1.83881E-005	0.205446	274.894
407.5000	0.396398	-3.02548E-007	0.203875	274.779
407.0000	0.303378	4.98918E-006	0.202272	274.655
406.5000	0.30885	6.27367E-006	0.200919	274.527
406.0000	0.336305	3.3655E-006	0.19966	274.394
405.5000	0.420964	3.15345E-005	0.198485	274.258
405.0000	0.438849	4.0003E-005	0.197489	274.104
404.5000	0.402656	4.47788E-005	0.196373	273.932
404.0000	0.465905	3.99769E-005	0.195368	273.741
403.5000	0.569415	4.13182E-005	0.194255	273.522
403.0000	0.549443	4.45828E-005	0.19319	273.285
402.5000	0.74194	5.90384E-005	0.192439	273.036
402.0000	0.836276	5.58308E-005	0.19195	272.813
401.5000	0.883274	6.35726E-005	0.19146	272.566
401.0000	1.0312	5.92602E-005	0.19085	272.342
400.5000	1.09248	6.00772E-005	0.190625	272.155
400.0000	1.12842	6.90507E-005	0.190285	271.987
399.5000	1.11717	6.08417E-005	0.190072	271.831
399.0000	1.19534	6.38376E-005	0.189863	271.706
398.5000	1.32701	6.80662E-005	0.189599	271.602
398.0000	1.20066	7.85813E-005	0.18951	271.533
397.5000	1.17918	7.48601E-005	0.189424	271.482
397.0000	1.14294	6.11963E-005	0.189376	271.453
396.5000	1.08849	5.53981E-005	0.189358	271.461
396.0000	1.08004	6.20047E-005	0.18971	271.494
395.5000	1.03146	6.37982E-005	0.189866	271.56
395.0000	0.937134	7.54886E-005	0.190103	271.663
394.5000	0.877112	7.69262E-005	0.190312	271.782
394.0000	0.865831	8.42926E-005	0.190413	271.915
393.5000	0.838222	7.89381E-005	0.190461	272.07
393.0000	0.845521	6.67381E-005	0.190552	272.248
392.5000	0.822914	6.56313E-005	0.190694	272.424
392.0000	0.838332	7.02177E-005	0.190679	272.578
391.5000	0.867951	7.79213E-005	0.190898	272.714
391.0000	1.0301	8.50447E-005	0.191156	272.826
390.5000	1.02929	8.3322E-005	0.191506	272.945
390.0000	1.10715	7.87325E-005	0.191898	273.056
389.5000	1.23011	8.70892E-005	0.192477	273.163
389.0000	1.34296	0.000102793	0.193131	273.265
388.5000	1.3042	0.000113264	0.19385	273.357
388.0000	1.30918	0.000106038	0.194374	273.443
387.5000	1.34287	9.57882E-005	0.194879	273.531
387.0000	1.41088	0.000102487	0.195803	273.599
386.5000	1.62446	0.000102571	0.196774	273.67
386.0000	1.58697	0.000102307	0.197746	273.75
385.5000	1.58102	0.000106809	0.199076	273.841
385.0000	1.60193	0.00010183	0.200255	273.915
384.5000	1.64528	0.000116689	0.20142	273.972
384.0000	1.67903	0.000121865	0.202769	274.042
383.5000	1.67867	0.0001253	0.204001	274.109
383.0000	1.70603	0.000122066	0.205269	274.186
382.5000	1.66672	0.000127988	0.206574	274.269
382.0000	1.69754	0.000124457	0.208254	274.356
381.5000	1.67662	0.000123296	0.20976	274.446
381.0000	1.50197	0.000102675	0.211073	274.53
380.5000	1.56292	9.67752E-005	0.212154	274.606
380.0000	1.5633	8.85826E-005	0.213366	274.696
379.5000	1.57492	8.59519E-005	0.214888	274.8
379.0000	1.59354	9.01879E-005	0.216374	274.895
378.5000	1.60689	7.57852E-005	0.217383	274.982
378.0000	1.50662	8.0991E-005	0.218307	275.071
377.5000	1.52809	6.61756E-005	0.219325	275.161
377.0000	1.33419	6.05061E-005	0.219972	275.217
376.5000	1.43362	7.05737E-005	0.220924	275.284
376.0000	1.28181	5.70609E-005	0.221761	275.344
375.5000	1.30475	4.67133E-005	0.222415	275.389
375.0000	1.27425	3.46539E-005	0.222952	275.431
374.5000	1.20883	2.51622E-005	0.223601	275.46
374.0000	1.60718	2.54872E-005	0.224139	275.484
373.5000	1.4951	2.34527E-005	0.224556	275.505
373.0000	1.394	6.21094E-006	0.224826	275.53
372.5000	1.59013	2.19431E-005	0.225268	275.553
372.0000	1.53037	1.45562E-005	0.225962	275.576
371.5000	1.43092	1.20897E-005	0.22657	275.597
371.0000	1.49679	2.24956E-005	0.226874	275.615
370.5000	1.45398	2.76603E-005	0.227283	275.648
370.0000	1.50526	3.0736E-005	0.22806	275.703
369.5000	1.52268	2.0809E-005	0.228652	275.746
369.0000	1.58642	1.56833E-005	0.229259	275.794
368.5000	1.81447	1.67458E-005	0.230236	275.879
368.0000	1.85107	7.18467E-006	0.230952	275.962
367.5000	1.95492	5.35996E-006	0.231487	276.038
367.0000	2.20665	9.62309E-006	0.232346	276.13
366.5000	2.22151	1.81138E-005	0.233469	276.243
366.0000	2.24608	1.96059E-005	0.234481	276.353
365.5000	2.20161	1.6077E-005	0.235551	276.475
365.0000	2.42154	8.32602E-006	0.236565	276.577
364.5000	2.63862	1.10902E-005	0.23777	276.685
364.0000	2.85381	1.60666E-005	0.239145	276.813
363.5000	3.01395	7.36558E-006	0.240206	276.936
363.0000	3.22511	3.91732E-007	0.2412	277.059
362.5000	3.40442	-1.20504E-005	0.24229	277.188
362.0000	3.51518	-1.52924E-005	0.243135	277.284
361.5000	3.56054	3.22593E-006	0.244285	277.406
361.0000	3.82648	9.13455E-006	0.245364	277.513
360.5000	3.97384	1.26678E-005	0.246192	277.621
360.0000	4.11084	-3.60429E-006	0.247017	277.726
359.5000	4.26398	1.46643E-006	0.248186	277.842
359.0000	4.2717	-4.08564E-007	0.249368	277.945
358.5000	4.39436	-1.19402E-005	0.250324	278.04
358.0000	4.70452	-1.47786E-005	0.25097	278.139
357.5000	4.80138	-1.78801E-005	0.251668	278.242
357.0000	4.87151	-1.6411E-005	0.252452	278.345
356.5000	5.01263	-1.67365E-005	0.253242	278.444
356.0000	5.02113	-1.83323E-005	0.253977	278.537
355.5000	4.8406	-3.02371E-005	0.25434	278.615
355.0000	4.9013	-2.42834E-005	0.254731	278.7
354.5000	4.91064	-3.62465E-005	0.255467	278.789
354.0000	5.00899	-4.71655E-005	0.256248	278.882
353.5000	5.39848	-5.45203E-005	0.257028	278.979
353.0000	5.33601	-7.77177E-005	0.257698	279.083
352.5000	5.45662	-9.12323E-005	0.258409	279.2
352.0000	5.55747	-0.000107324	0.259409	279.311
351.5000	5.61236	-0.000103906	0.260238	279.413
351.0000	5.59074	-0.000109284	0.261017	279.516
350.5000	5.7037	-0.000111699	0.2616	279.622
350.0000	5.82867	-0.000109652	0.262346	279.748
349.5000	5.70758	-0.000113459	0.263357	279.862
349.0000	5.84865	-0.000125891	0.264344	279.986
348.5000	5.88931	-0.000129564	0.265118	280.088
348.0000	6.01867	-0.000146901	0.265836	280.193
347.5000	6.10197	-0.000148002	0.266339	280.29
347.0000	6.37434	-0.000141386	0.267129	280.407
346.5000	6.48229	-0.000149601	0.26803	280.527
346.0000	6.39152	-0.000158036	0.269102	280.657
345.5000	6.48198	-0.000161957	0.270039	280.767
345.0000	6.33757	-0.00016153	0.270939	280.891
344.5000	6.51984	-0.000153618	0.271818	280.998
344.0000	6.55443	-0.000149621	0.272738	281.107
343.5000	6.5914	-0.000157958	0.273675	281.218
343.0000	6.61187	-0.000171886	0.274654	281.317
342.5000	6.74477	-0.000185457	0.275461	281.412
342.0000	6.98995	-0.000196392	0.276618	281.529
341.5000	7.06778	-0.000206696	0.277711	281.647
341.0000	7.12599	-0.00021026	0.278786	281.744
340.5000	7.14028	-0.000219822	0.280076	281.858
340.0000	7.28996	-0.000228719	0.281474	281.991
339.5000	7.30957	-0.000225301	0.282622	282.111
339.0000	7.28235	-0.000242986	0.284053	282.239
338.5000	7.30902	-0.000263629	0.285279	282.36
338.0000	7.28596	-0.000272369	0.286422	282.481
337.5000	7.51207	-0.0002784	0.287684	282.61
337.0000	7.42145	-0.000279321	0.288903	282.732
336.5000	7.34284	-0.000297692	0.290168	282.858
336.0000	7.19555	-0.000323986	0.291427	282.988
335.5000	7.3232	-0.000338824	0.292447	283.109
335.0000	7.28898	-0.000330388	0.29351	283.246
334.5000	7.10162	-0.000339095	0.294768	283.393
334.0000	6.84862	-0.000343583	0.296192	283.547
333.5000	6.66334	-0.000369006	0.297484	283.703
333.0000	6.63927	-0.000371881	0.298484	283.834
332.5000	6.43963	-0.000390689	0.2996	283.983
332.0000	6.54069	-0.000411921	0.300633	284.116
331.5000	6.40809	-0.00043342	0.301731	284.262
331.0000	6.58243	-0.000452753	0.303117	284.434
330.5000	6.55009	-0.000459854	0.304428	284.587
330.0000	6.46759	-0.000477022	0.305784	284.741
329.5000	6.53461	-0.000497404	0.307284	284.897
329.0000	6.58538	-0.000520006	0.308875	285.072
328.5000	6.61053	-0.000538786	0.310195	285.219
328.0000	6.72515	-0.000549975	0.311571	285.359
327.5000	6.86456	-0.000558748	0.313111	285.503
327.0000	6.68346	-0.00056023	0.314801	285.646
326.5000	6.53818	-0.000584133	0.316614	285.799
326.0000	6.66446	-0.000599144	0.318296	285.965
325.5000	6.73299	-0.000623861	0.320005	286.146
325.0000	6.7518	-0.000637508	0.321716	286.323
324.5000	6.72858	-0.000665842	0.323677	286.529
324.0000	6.99916	-0.000686729	0.325565	286.729
323.5000	6.86202	-0.000691908	0.32734	286.937
323.0000	7.03294	-0.000701788	0.329273	287.145
322.5000	6.82191	-0.000722343	0.331312	287.339
322.0000	6.76361	-0.000728603	0.333265	287.538
321.5000	6.74234	-0.000747528	0.335408	287.758
321.0000	6.61029	-0.000757397	0.337463	287.988
320.5000	6.55549	-0.000782721	0.339253	288.197
320.0000	6.54011	-0.00079987	0.341189	288.409
319.5000	6.45899	-0.000824961	0.343139	288.628
319.0000	6.28671	-0.000853431	0.345079	288.863
318.5000	6.2368	-0.000888993	0.347294	289.124
318.0000	6.26929	-0.000916983	0.349504	289.367
317.5000	6.23997	-0.000933307	0.351771	289.58
317.0000	6.36326	-0.000953237	0.354207	289.791
316.5000	6.25537	-0.000980206	0.356261	289.982
316.0000	5.90694	-0.000993831	0.358367	290.194
315.5000	5.92569	-0.00100932	0.360703	290.425
315.0000	5.87541	-0.00101772	0.363361	290.679
314.5000	5.81353	-0.00102938	0.365863	290.928
314.0000	5.67649	-0.00106018	0.368375	291.196
313.5000	5.58325	-0.00108804	0.370956	291.473
313.0000	5.47101	-0.00109891	0.373626	291.769
312.5000	5.4218	-0.00110234	0.376331	292.058
312.0000	5.40424	-0.00110482	0.379218	292.36
311.5000	5.43982	-0.00112325	0.382287	292.683
311.0000	5.32007	-0.0011341	0.385454	293.019
310.5000	5.03549	-0.00114355	0.388708	293.391
310.0000	5.142	-0.0011456	0.391809	293.744
309.5000	5.0876	-0.00115336	0.394845	294.115
309.0000	4.78993	-0.00116277	0.398396	294.539
308.5000	4.6126	-0.00117596	0.402274	294.989
308.0000	4.65998	-0.00117887	0.406368	295.42
307.5000	4.49267	-0.00120348	0.411113	295.922
307.0000	4.44895	-0.00121369	0.415344	296.394
306.5000	4.59598	-0.0012502	0.420014	296.919
306.0000	4.50202	-0.001268	0.425043	297.45
305.5000	4.45367	-0.00129651	0.430604	298.029
305.0000	4.43124	-0.00132986	0.43628	298.605
304.5000	4.31597	-0.00134439	0.442716	299.256
304.0000	4.23219	-0.00137813	0.449229	299.946
303.5000	4.16601	-0.00141558	0.455921	300.642
303.0000	3.99992	-0.00144795	0.463098	301.395
302.5000	4.21382	-0.00147951	0.470731	302.181
302.0000	4.46344	-0.00150451	0.478852	303.008
301.5000	4.4453	-0.00153255	0.486997	303.858
301.0000	4.45748	-0.00156548	0.495543	304.731
300.5000	4.39643	-0.00159955	0.503339	305.524
300.0000	4.38895	-0.00162452	0.512568	306.481
299.5000	4.11317	-0.00166014	0.521339	307.399
299.0000	4.23983	-0.00167999	0.530237	308.319
298.5000	3.87765	-0.0016997	0.539586	309.275
298.0000	3.66998	-0.00171153	0.548519	310.193
297.5000	3.72157	-0.00173705	0.557463	311.147
297.0000	3.74254	-0.00172506	0.565423	311.99
296.5000	3.71042	-0.00170327	0.57321	312.825
296.0000	3.60416	-0.00170894	0.580923	313.634
295.5000	3.52655	-0.001708	0.589061	314.429
295.0000	3.35898	-0.00169829	0.596614	315.156
294.5000	3.26405	-0.00170176	0.603607	315.889
294.0000	3.08454	-0.00167803	0.610629	316.658
293.5000	2.91181	-0.0016778	0.616474	317.301
293.0000	2.88415	-0.00166065	0.622555	317.987
292.5000	2.89777	-0.0016082	0.628576	318.674
292.0000	2.68149	-0.00158709	0.633949	319.324
291.5000	2.46956	-0.00155914	0.639053	319.941
291.0000	2.33801	-0.0015234	0.644216	320.561
290.5000	2.32698	-0.00148656	0.649598	321.204
290.0000	2.14256	-0.00146151	0.654678	321.818
289.5000	1.95608	-0.00142837	0.659068	322.364
289.0000	1.45098	-0.00139685	0.663696	322.926
288.5000	1.17877	-0.00138259	0.668688	323.557
288.0000	0.957011	-0.00135957	0.673531	324.167
287.5000	0.76099	-0.00132282	0.678707	324.839
287.0000	0.767003	-0.00128878	0.683622	325.531
286.5000	0.530433	-0.00125411	0.688402	326.214
286.0000	0.451244	-0.00120264	0.693356	326.872
285.5000	0.245849	-0.00118734	0.698733	327.52
285.0000	0.0919592	-0.00113662	0.704375	328.205
284.5000	-0.323853	-0.00110489	0.709675	328.861
284.0000	-0.50579	-0.00107253	0.715292	329.554
283.5000	-0.416542	-0.00102659	0.721215	330.269
283.0000	-0.466375	-0.000995719	0.727037	330.976
282.5000	-0.471927	-0.000941152	0.732799	331.726
282.0000	-0.655755	-0.000918127	0.738827	332.497
281.5000	-0.612943	-0.000881896	0.744888	333.259
281.0000	-0.5686	-0.000832099	0.751489	334.062
280.5000	-0.641986	-0.000765162	0.758434	334.916
280.0000	-0.638551	-0.000718181	0.765835	335.786
279.5000	-0.682734	-0.000676918	0.773288	336.691
279.0000	-0.802588	-0.000653222	0.780576	337.579
278.5000	-1.23738	-0.000611551	0.788612	338.565
278.0000	-1.34601	-0.000566039	0.797509	339.649
277.5000	-1.74123	-0.000513631	0.805991	340.668
277.0000	-1.98267	-0.00047877	0.815181	341.789
276.5000	-2.35046	-0.000455667	0.825038	342.973
276.0000	-2.51793	-0.000419957	0.834185	344.063
275.5000	-2.69402	-0.000397321	0.844745	345.314
275.0000	-2.95624	-0.000350996	0.855765	346.618
274.5000	-2.99568	-0.000297916	0.867228	347.977
274.0000	-3.26925	-0.000242011	0.879972	349.484
273.5000	-3.51821	-0.000178935	0.891764	350.901
273.0000	-4.15019	-0.000149718	0.904823	352.453
272.5000	-4.178	-0.000116736	0.918306	354.073
272.0000	-4.78016	-0.000121586	0.932328	355.764
271.5000	-5.43858	-6.50521E-005	0.947565	357.632
271.0000	-5.35861	-2.76625E-005	0.962743	359.483
270.5000	-5.25823	2.26402E-005	0.978504	361.414
270.0000	-5.6323	6.26518E-005	0.994774	363.408
269.5000	-5.88708	8.72812E-005	1.01192	365.508
269.0000	-6.20996	8.79681E-005	1.02857	367.573
268.5000	-6.20704	0.00013162	1.04656	369.829
268.0000	-6.41509	0.00018116	1.06509	372.177
267.5000	-6.6784	0.000216375	1.08438	374.635
267.0000	-7.16279	0.000204488	1.10519	377.297
266.5000	-7.31371	0.000217231	1.1266	380.055
266.0000	-7.21878	0.00021406	1.1463	382.61
265.5000	-7.05699	0.000208805	1.16743	385.361
265.0000	-7.52772	0.00021486	1.18992	388.302
264.5000	-7.85385	0.000220843	1.21146	391.149
264.0000	-7.54784	0.000212482	1.23298	394.006
263.5000	-7.40185	0.000223832	1.25531	397.012
263.0000	-6.74169	0.000242264	1.27512	399.71
262.5000	-6.92493	0.000247834	1.29685	402.68
262.0000	-6.54288	0.000253105	1.31745	405.513
261.5000	-5.98269	0.000293537	1.33746	408.317
261.0000	-6.07421	0.00029406	1.3561	410.961
260.5000	-6.15773	0.000357085	1.37544	413.711
260.0000	-6.20393	0.000305664	1.39462	416.462
259.5000	-6.42019	0.000303672	1.41357	419.199
259.0000	-5.79058	0.000299007	1.43214	421.927
258.5000	-5.03166	0.000256067	1.45044	424.637
258.0000	-4.50704	0.0002423	1.46871	427.361
257.5000	-4.43708	0.000228795	1.48614	429.948
257.0000	-4.3179	0.000176547	1.50456	432.684
256.5000	-3.61106	0.000216692	1.52175	435.281
256.0000	-3.47771	0.000151572	1.53958	438.035
255.5000	-3.66483	4.09895E-005	1.5574	440.816
255.0000	-3.66775	-3.32873E-005	1.57543	443.647
254.5000	-3.88424	-0.000163491	1.59284	446.362
254.0000	-3.36803	-0.000190435	1.61007	449.096
253.5000	-4.49284	-0.000365579	1.62887	452.131
253.0000	-5.82018	-0.000502183	1.64565	454.877
252.5000	-5.92978	-0.000601095	1.67019	458.947
252.0000	-7.03187	-0.000761879	1.69	462.312
251.5000	-6.3871	-0.000855668	1.70669	465.235
251.0000	-6.89972	-0.000983993	1.72296	468.13
250.5000	-7.7695	-0.00106888	1.73862	471.012
250.0000	-8.35731	-0.00115662	1.753	473.74

##### Extended Information
[Comments]
Sample name	JS187+JS190_5E-5_HEPES_ASPREP_100-0
Comment
User
Division
Company	Labo systeme complexes hors equilibre

[Detailed Information]
Creation date	3/20/2024 11:30 AM

Data array type	Linear data array * 4
Horizontal axis	Wavelength [nm]
Vertical axis(1)	CD [mdeg]
Vertical axis(2)	LD [dOD]
Vertical axis(3)	Abs
Vertical axis(4)	HT [V]
Start	700 nm
End	250 nm
Data interval	0.5 nm
Data points	901     

[Measurement Information]
Instrument name	CD Jasco
Model name	J-1500
Serial No.	A005261638

Detector	PM-539
Detector S/N	A0052PM539
  Lock-in amp.	X mode
  HT volt	Auto

Detector	EXPML-535
Detector S/N	A0001
  Lock-in amp.	X mode
  HT volt	Auto

Measurement date	3/20/2024 11:30 AM

Overload detect	1
Photometric mode	CD, LD, Abs, HT
Measure range	700 - 250 nm
Data pitch	0.5 nm
CD scale	200 mdeg/1.0 dOD
FL scale	200 mdeg/1.0 dOD
D.I.T.	1 sec
Bandwidth	1.00 nm
Start mode	Immediately
Scanning speed	500 nm/min
Baseline correction	Baseline
Shutter control	Auto


