TITLE	JS187+JS90_5E-5_HEPES_48h_100-0
DATA TYPE	
ORIGIN	JASCO
OWNER	
DATE	24/03/22
TIME	09:23:37
SPECTROMETER/DATA SYSTEM	
LOCALE	1033
RESOLUTION	
DELTAX	-0.5
XUNITS	NANOMETERS
YUNITS	CD [mdeg]
Y2UNITS	LD [dOD]
Y3UNITS	ABSORBANCE
Y4UNITS	HT [V]
FIRSTX	  700.0000
LASTX	  250.0000
NPOINTS	     901
FIRSTY	     0.11515
MAXY	    26.55498
MINY	   -18.39791
XYDATA
700.0000	0.115151	-0.000519493	0.156019	315.735
699.5000	0.250762	-0.00053347	0.155655	315.427
699.0000	0.516089	-0.000534694	0.154684	315.043
698.5000	0.412133	-0.000543925	0.153335	314.602
698.0000	0.435083	-0.000554307	0.151662	314.104
697.5000	0.453068	-0.000537996	0.15024	313.593
697.0000	0.769753	-0.000548794	0.149147	313.015
696.5000	0.814699	-0.000561434	0.148487	312.468
696.0000	0.928033	-0.000579678	0.147883	311.856
695.5000	0.998396	-0.000582883	0.147294	311.281
695.0000	0.773253	-0.000592178	0.147734	310.77
694.5000	0.624571	-0.000584036	0.148726	310.276
694.0000	0.806741	-0.000592732	0.150596	309.844
693.5000	0.861501	-0.000577721	0.152816	309.456
693.0000	0.717781	-0.000560384	0.154824	309.135
692.5000	0.948476	-0.000555729	0.157158	308.852
692.0000	1.00165	-0.000554586	0.159609	308.602
691.5000	0.718703	-0.000562234	0.161938	308.383
691.0000	0.597255	-0.000561054	0.164122	308.159
690.5000	0.756038	-0.000551127	0.165907	307.97
690.0000	1.25847	-0.000539364	0.167279	307.802
689.5000	1.21164	-0.000547055	0.169054	307.696
689.0000	1.18134	-0.000532075	0.171408	307.672
688.5000	1.33472	-0.000509336	0.174671	307.756
688.0000	1.31127	-0.000491383	0.178569	307.96
687.5000	1.12922	-0.000480544	0.182582	308.226
687.0000	1.28623	-0.000465738	0.185247	308.497
686.5000	1.28275	-0.000454148	0.186965	308.804
686.0000	1.12086	-0.000454577	0.187634	309.089
685.5000	1.14199	-0.000463068	0.187379	309.363
685.0000	1.07914	-0.000454824	0.187004	309.633
684.5000	0.863415	-0.000487802	0.186545	309.875
684.0000	0.585048	-0.000465111	0.185903	310.104
683.5000	0.597812	-0.00046242	0.185441	310.349
683.0000	1.0311	-0.000440238	0.184828	310.604
682.5000	0.772582	-0.000439955	0.184722	310.892
682.0000	0.651384	-0.000426147	0.184938	311.218
681.5000	0.620791	-0.000425828	0.185315	311.524
681.0000	0.831948	-0.000421859	0.185352	311.823
680.5000	0.830693	-0.000437545	0.18444	312.05
680.0000	0.841502	-0.00042296	0.18245	312.201
679.5000	0.974465	-0.000409143	0.179982	312.276
679.0000	0.98741	-0.000401992	0.177848	312.303
678.5000	1.07685	-0.000415271	0.17604	312.291
678.0000	0.931873	-0.000430927	0.174863	312.263
677.5000	0.913104	-0.000421849	0.174792	312.236
677.0000	1.10389	-0.000416059	0.17477	312.195
676.5000	1.05685	-0.000410485	0.175142	312.171
676.0000	0.843243	-0.000404649	0.175439	312.146
675.5000	0.920416	-0.000416798	0.17587	312.125
675.0000	0.412783	-0.000423027	0.176374	312.12
674.5000	0.652499	-0.000416866	0.176772	312.126
674.0000	0.525852	-0.00040709	0.177526	312.13
673.5000	0.315066	-0.000405704	0.178417	312.158
673.0000	0.266209	-0.000405644	0.179407	312.201
672.5000	0.310067	-0.000400853	0.180352	312.248
672.0000	0.474483	-0.000397461	0.18098	312.292
671.5000	0.431471	-0.000406178	0.181574	312.339
671.0000	0.259135	-0.00040653	0.182105	312.401
670.5000	0.643098	-0.000407889	0.182625	312.466
670.0000	0.453145	-0.000384254	0.183245	312.536
669.5000	0.512245	-0.000397556	0.18327	312.601
669.0000	0.753051	-0.000391034	0.183367	312.682
668.5000	0.668498	-0.000399052	0.183736	312.778
668.0000	0.751886	-0.000393075	0.184246	312.897
667.5000	0.870763	-0.000379275	0.184734	313.015
667.0000	1.09791	-0.0003959	0.185316	313.143
666.5000	1.25591	-0.000374573	0.18573	313.256
666.0000	1.13044	-0.000385131	0.18625	313.386
665.5000	1.17097	-0.000379145	0.186544	313.511
665.0000	0.972199	-0.000378292	0.186453	313.623
664.5000	0.979479	-0.0003931	0.186438	313.739
664.0000	1.10093	-0.000401933	0.186226	313.837
663.5000	1.18962	-0.00043408	0.18617	313.924
663.0000	1.38602	-0.000440373	0.185892	313.999
662.5000	1.22248	-0.000435261	0.185354	314.064
662.0000	1.4191	-0.000440509	0.184701	314.115
661.5000	1.19209	-0.000429813	0.184122	314.144
661.0000	1.22074	-0.000420403	0.183787	314.168
660.5000	1.33839	-0.000406374	0.183494	314.177
660.0000	1.64387	-0.000406371	0.182856	314.16
659.5000	1.68074	-0.000386722	0.182354	314.132
659.0000	1.64544	-0.000395658	0.1822	314.093
658.5000	1.53806	-0.000415415	0.182039	314.031
658.0000	1.56446	-0.000421907	0.18147	313.932
657.5000	1.72736	-0.000427752	0.180756	313.811
657.0000	1.88308	-0.0004433	0.180335	313.685
656.5000	1.81811	-0.000415144	0.180052	313.521
656.0000	1.72185	-0.00040634	0.179647	313.346
655.5000	1.71356	-0.000390933	0.179261	313.166
655.0000	1.61406	-0.000369935	0.1791	312.972
654.5000	1.58441	-0.000351068	0.179849	312.78
654.0000	1.67861	-0.000350632	0.180719	312.592
653.5000	1.61014	-0.00035645	0.181485	312.422
653.0000	1.98409	-0.000371706	0.18243	312.279
652.5000	1.9864	-0.000391664	0.18377	312.16
652.0000	2.03792	-0.000373469	0.185361	312.077
651.5000	1.99761	-0.000367403	0.187064	312.024
651.0000	2.20156	-0.000373682	0.188186	312.006
650.5000	2.19143	-0.000342702	0.189374	312.022
650.0000	2.05673	-0.000364213	0.190071	312.05
649.5000	2.22974	-0.000331972	0.191694	312.11
649.0000	2.15067	-0.000325189	0.193166	312.205
648.5000	2.22831	-0.000323442	0.194586	312.329
648.0000	2.5507	-0.000331044	0.195942	312.477
647.5000	2.41927	-0.000340216	0.197098	312.635
647.0000	2.44844	-0.000325708	0.198073	312.803
646.5000	2.30954	-0.000349105	0.198573	312.989
646.0000	2.14622	-0.000353268	0.198466	313.166
645.5000	1.94308	-0.000336282	0.198194	313.33
645.0000	1.82564	-0.000331288	0.198384	313.472
644.5000	1.56246	-0.000319699	0.19824	313.579
644.0000	1.4001	-0.000318128	0.197695	313.658
643.5000	1.47976	-0.000334309	0.196978	313.714
643.0000	1.31765	-0.000348086	0.196536	313.738
642.5000	1.2416	-0.000353528	0.196571	313.74
642.0000	1.12799	-0.000357341	0.196781	313.727
641.5000	1.25326	-0.000373316	0.196798	313.709
641.0000	1.26334	-0.000378447	0.196227	313.665
640.5000	1.44881	-0.000371419	0.196141	313.615
640.0000	1.35506	-0.000381554	0.196254	313.561
639.5000	1.36185	-0.000378934	0.196494	313.49
639.0000	1.56463	-0.000374406	0.197031	313.43
638.5000	1.43654	-0.000392998	0.197697	313.362
638.0000	1.70755	-0.000389609	0.198688	313.289
637.5000	2.06569	-0.000383504	0.200027	313.225
637.0000	2.11783	-0.000388231	0.201185	313.16
636.5000	2.10264	-0.000408006	0.202025	313.111
636.0000	2.15743	-0.000412391	0.202746	313.053
635.5000	1.97811	-0.0004055	0.203774	313.004
635.0000	2.13401	-0.000413122	0.204662	312.964
634.5000	2.29202	-0.000408145	0.205144	312.935
634.0000	2.34424	-0.00038701	0.20549	312.91
633.5000	2.50114	-0.000376658	0.206453	312.9
633.0000	2.49997	-0.000370504	0.207723	312.898
632.5000	2.16317	-0.000378602	0.208854	312.883
632.0000	2.08332	-0.000397273	0.209603	312.878
631.5000	2.31068	-0.00040531	0.210436	312.876
631.0000	2.02725	-0.000399611	0.211378	312.87
630.5000	2.06197	-0.000408631	0.212418	312.863
630.0000	1.98125	-0.000424061	0.213196	312.845
629.5000	1.81034	-0.000439739	0.213731	312.822
629.0000	1.70034	-0.000454109	0.214339	312.801
628.5000	1.54659	-0.000465406	0.215051	312.78
628.0000	1.85133	-0.000442474	0.21603	312.767
627.5000	1.69382	-0.000463857	0.216948	312.754
627.0000	1.67986	-0.000465412	0.217532	312.745
626.5000	1.66691	-0.000455913	0.218419	312.729
626.0000	1.73787	-0.000473649	0.219868	312.72
625.5000	1.69686	-0.00049349	0.221391	312.72
625.0000	1.69023	-0.000506907	0.2225	312.725
624.5000	1.87601	-0.000496902	0.223639	312.747
624.0000	2.0034	-0.000494777	0.225126	312.776
623.5000	1.81376	-0.000489352	0.226871	312.811
623.0000	1.86679	-0.000499186	0.228334	312.869
622.5000	2.00394	-0.000519737	0.229447	312.944
622.0000	1.96882	-0.000508132	0.230657	313.029
621.5000	2.07637	-0.000509834	0.232047	313.133
621.0000	2.17863	-0.000539173	0.233652	313.246
620.5000	2.17158	-0.000546354	0.235017	313.368
620.0000	2.65643	-0.000536065	0.236415	313.508
619.5000	2.5429	-0.000544247	0.237647	313.671
619.0000	2.94411	-0.000531605	0.239126	313.851
618.5000	3.17213	-0.000537488	0.24073	314.058
618.0000	3.18513	-0.000551097	0.24225	314.261
617.5000	3.0787	-0.000545448	0.243294	314.465
617.0000	3.04032	-0.000552589	0.244472	314.673
616.5000	3.06662	-0.000556367	0.245699	314.869
616.0000	3.36475	-0.000584393	0.246867	315.073
615.5000	3.5636	-0.000597802	0.247745	315.279
615.0000	3.68523	-0.000592497	0.248438	315.472
614.5000	3.68319	-0.000561635	0.249402	315.664
614.0000	3.87663	-0.000565412	0.250469	315.853
613.5000	3.9963	-0.000572993	0.251397	316.042
613.0000	3.98925	-0.000564523	0.251987	316.244
612.5000	3.80608	-0.000586406	0.252894	316.436
612.0000	3.44613	-0.000606941	0.254139	316.637
611.5000	3.52828	-0.00061666	0.255435	316.815
611.0000	3.39286	-0.000608901	0.256471	316.996
610.5000	3.40677	-0.000610559	0.257463	317.176
610.0000	3.43485	-0.000619401	0.258448	317.347
609.5000	3.4287	-0.000639353	0.259534	317.525
609.0000	3.58895	-0.00062499	0.260571	317.671
608.5000	3.64749	-0.000637913	0.261758	317.821
608.0000	3.78651	-0.000641707	0.26304	317.958
607.5000	3.48051	-0.000657779	0.264242	318.086
607.0000	3.77105	-0.000652364	0.265658	318.227
606.5000	3.72999	-0.000656183	0.26713	318.363
606.0000	3.5769	-0.000683762	0.268525	318.487
605.5000	3.75639	-0.000694148	0.270304	318.621
605.0000	3.63774	-0.00071108	0.272059	318.741
604.5000	3.83659	-0.000723493	0.273656	318.865
604.0000	4.21192	-0.000715622	0.275039	318.986
603.5000	4.51993	-0.000712432	0.276349	319.094
603.0000	4.3918	-0.000748243	0.277899	319.195
602.5000	4.36462	-0.000766892	0.279536	319.29
602.0000	4.35718	-0.000780843	0.281086	319.369
601.5000	4.34308	-0.000796464	0.282686	319.446
601.0000	4.58701	-0.000792318	0.284389	319.521
600.5000	4.42556	-0.000818182	0.286397	319.613
600.0000	4.26161	-0.000830862	0.288363	319.684
599.5000	4.38247	-0.000813192	0.29008	319.764
599.0000	4.38514	-0.000825829	0.291398	319.819
598.5000	4.59868	-0.000865256	0.293215	319.873
598.0000	4.51799	-0.000879652	0.295427	319.934
597.5000	4.50555	-0.000881766	0.297597	319.989
597.0000	4.71771	-0.000908001	0.299556	320.042
596.5000	4.83205	-0.000902424	0.301468	320.066
596.0000	4.85704	-0.000908888	0.303656	320.081
595.5000	4.93124	-0.00092521	0.306032	320.104
595.0000	4.82733	-0.000927443	0.308198	320.12
594.5000	4.88897	-0.000918185	0.31057	320.15
594.0000	4.72267	-0.00094659	0.313116	320.183
593.5000	4.69572	-0.000948792	0.315896	320.208
593.0000	4.75093	-0.00096784	0.318672	320.248
592.5000	4.63391	-0.00100168	0.321317	320.306
592.0000	4.63685	-0.00102882	0.323821	320.379
591.5000	4.56011	-0.00103394	0.326519	320.444
591.0000	4.68029	-0.00106677	0.329716	320.509
590.5000	4.76586	-0.00107841	0.332987	320.624
590.0000	4.76287	-0.00107941	0.335821	320.733
589.5000	5.06915	-0.00107493	0.338586	320.848
589.0000	5.08269	-0.00106839	0.341521	320.968
588.5000	5.17828	-0.00106821	0.344967	321.115
588.0000	5.29961	-0.00108458	0.34869	321.296
587.5000	5.33418	-0.00110334	0.352294	321.491
587.0000	5.50075	-0.00110608	0.356039	321.737
586.5000	5.56545	-0.00110799	0.359631	321.964
586.0000	5.83407	-0.00114456	0.363333	322.201
585.5000	6.17379	-0.00115502	0.366808	322.465
585.0000	6.47443	-0.00116329	0.370314	322.727
584.5000	6.72491	-0.00115834	0.373858	322.983
584.0000	7.12528	-0.00114957	0.37778	323.274
583.5000	7.3239	-0.00113863	0.382067	323.596
583.0000	7.60762	-0.0011596	0.386436	323.94
582.5000	8.10357	-0.00114864	0.390909	324.302
582.0000	8.54541	-0.00114337	0.395619	324.65
581.5000	8.78694	-0.00116612	0.400766	325.044
581.0000	9.28219	-0.0012236	0.406001	325.456
580.5000	9.28807	-0.00124342	0.410877	325.881
580.0000	9.71063	-0.00123571	0.41566	326.289
579.5000	10.1408	-0.00122924	0.420336	326.717
579.0000	10.3625	-0.00122523	0.425649	327.151
578.5000	10.8054	-0.00124122	0.431313	327.585
578.0000	11.3561	-0.0012284	0.436886	328.047
577.5000	11.8831	-0.00124574	0.442886	328.552
577.0000	12.3604	-0.00125177	0.448967	329.041
576.5000	12.641	-0.00125309	0.455853	329.587
576.0000	13.068	-0.00123859	0.462322	330.125
575.5000	13.7571	-0.00126054	0.468713	330.647
575.0000	14.3369	-0.00125191	0.47476	331.16
574.5000	14.5659	-0.00124497	0.481559	331.723
574.0000	15.3045	-0.00124364	0.488209	332.264
573.5000	15.9524	-0.00123018	0.494562	332.824
573.0000	16.6122	-0.00122331	0.501261	333.426
572.5000	17.0252	-0.00121153	0.507506	333.97
572.0000	17.7154	-0.00122752	0.51492	334.608
571.5000	18.3493	-0.00120319	0.522376	335.224
571.0000	19.1645	-0.00120555	0.530036	335.866
570.5000	20.0436	-0.00120172	0.537436	336.522
570.0000	20.9959	-0.00119945	0.544309	337.155
569.5000	21.7081	-0.00117507	0.551703	337.811
569.0000	21.9301	-0.00119258	0.558904	338.45
568.5000	22.7015	-0.00118712	0.565564	339.056
568.0000	23.571	-0.00118912	0.572273	339.66
567.5000	24.3108	-0.00118977	0.579015	340.256
567.0000	24.9965	-0.00118549	0.585568	340.835
566.5000	25.091	-0.00120257	0.591877	341.375
566.0000	25.6594	-0.00119909	0.59769	341.89
565.5000	25.4773	-0.00118626	0.603356	342.386
565.0000	25.4889	-0.00120268	0.6089	342.833
564.5000	25.9745	-0.00119473	0.614393	343.278
564.0000	26.3368	-0.00120574	0.619221	343.654
563.5000	26.555	-0.00120957	0.623739	344.002
563.0000	26.4212	-0.00125491	0.628142	344.356
562.5000	26.0457	-0.00127856	0.632088	344.649
562.0000	25.721	-0.00129344	0.635804	344.905
561.5000	25.393	-0.0013024	0.639602	345.134
561.0000	25.2665	-0.00131947	0.64299	345.333
560.5000	25.072	-0.00132563	0.645894	345.502
560.0000	24.4264	-0.00133999	0.648476	345.642
559.5000	23.9318	-0.0013433	0.650769	345.728
559.0000	23.7024	-0.00132161	0.652531	345.766
558.5000	23.1741	-0.00136381	0.65366	345.761
558.0000	22.8026	-0.00137164	0.654436	345.729
557.5000	22.3226	-0.00137687	0.655174	345.665
557.0000	22.1753	-0.00137275	0.655811	345.576
556.5000	21.3675	-0.00137017	0.655924	345.448
556.0000	20.8306	-0.00136536	0.655656	345.273
555.5000	20.227	-0.00137392	0.655042	345.084
555.0000	20.0605	-0.00136867	0.654195	344.848
554.5000	19.4708	-0.00139063	0.653177	344.601
554.0000	19.4035	-0.00140856	0.651742	344.313
553.5000	18.7777	-0.00143173	0.650356	344.026
553.0000	18.1497	-0.00145419	0.64905	343.748
552.5000	17.7376	-0.00149714	0.647464	343.445
552.0000	17.5506	-0.00150743	0.64591	343.104
551.5000	17.4639	-0.00154533	0.644071	342.786
551.0000	17.0837	-0.00157224	0.642149	342.455
550.5000	16.8796	-0.00159515	0.640244	342.11
550.0000	16.6885	-0.00158507	0.638246	341.75
549.5000	16.6704	-0.00157415	0.636365	341.401
549.0000	16.3848	-0.00158756	0.63447	341.064
548.5000	16.2096	-0.00161725	0.632728	340.756
548.0000	15.7305	-0.00163434	0.630951	340.43
547.5000	15.8542	-0.00163464	0.629483	340.143
547.0000	15.5271	-0.001655	0.62814	339.851
546.5000	15.1403	-0.00164641	0.627166	339.591
546.0000	15.0359	-0.00161721	0.626275	339.359
545.5000	15.0625	-0.00159627	0.625687	339.157
545.0000	15.4338	-0.00157781	0.62499	339.001
544.5000	15.8022	-0.00156272	0.624654	338.843
544.0000	15.7076	-0.00153258	0.624513	338.724
543.5000	15.7484	-0.00152114	0.62448	338.621
543.0000	15.6388	-0.00149249	0.624869	338.546
542.5000	15.7354	-0.0014858	0.625479	338.505
542.0000	16.2739	-0.00147092	0.626465	338.465
541.5000	16.4062	-0.00148609	0.627635	338.472
541.0000	16.8406	-0.00150972	0.628866	338.483
540.5000	17.2277	-0.00149763	0.630399	338.518
540.0000	17.7276	-0.00149997	0.63207	338.557
539.5000	17.9832	-0.00149316	0.634073	338.645
539.0000	18.4183	-0.00148219	0.636228	338.759
538.5000	18.6402	-0.00148288	0.638615	338.904
538.0000	18.889	-0.00149077	0.640763	339.027
537.5000	19.0191	-0.00146932	0.643261	339.173
537.0000	19.2365	-0.00149102	0.646233	339.34
536.5000	19.2271	-0.00147064	0.648974	339.5
536.0000	19.3756	-0.00148038	0.651965	339.695
535.5000	19.6536	-0.00148579	0.655128	339.911
535.0000	20.0469	-0.00148618	0.658667	340.136
534.5000	20.007	-0.00146928	0.66218	340.322
534.0000	19.5923	-0.001498	0.665613	340.549
533.5000	19.503	-0.00147736	0.669128	340.794
533.0000	19.6419	-0.0014557	0.672588	341.018
532.5000	19.4759	-0.00146539	0.67647	341.278
532.0000	19.5091	-0.00144985	0.680412	341.546
531.5000	19.735	-0.00143482	0.684401	341.814
531.0000	19.7185	-0.0014281	0.688236	342.071
530.5000	19.6396	-0.00144697	0.691993	342.321
530.0000	19.6932	-0.00146352	0.696046	342.573
529.5000	19.625	-0.00150591	0.699763	342.827
529.0000	19.2105	-0.00150662	0.703086	343.038
528.5000	19.1316	-0.00152623	0.706333	343.247
528.0000	19.1976	-0.00154305	0.709575	343.465
527.5000	19.001	-0.00152905	0.712802	343.66
527.0000	18.4443	-0.00157604	0.716158	343.839
526.5000	18.4031	-0.00159801	0.719418	344.031
526.0000	18.4314	-0.00161793	0.722656	344.217
525.5000	18.3826	-0.00163426	0.725727	344.373
525.0000	17.8201	-0.00164732	0.728387	344.517
524.5000	17.5801	-0.00166949	0.730825	344.628
524.0000	16.78	-0.0017147	0.732776	344.699
523.5000	15.9525	-0.00176193	0.734712	344.775
523.0000	15.4522	-0.00176673	0.736776	344.837
522.5000	14.8964	-0.00180904	0.738714	344.885
522.0000	14.1437	-0.00183166	0.740563	344.932
521.5000	13.7239	-0.00186237	0.742143	344.969
521.0000	13.1819	-0.00186994	0.743463	344.981
520.5000	12.9717	-0.00189748	0.744897	345.005
520.0000	12.2323	-0.00190777	0.746136	345.003
519.5000	11.576	-0.00193556	0.747087	344.97
519.0000	10.704	-0.00197193	0.74812	344.925
518.5000	10.28	-0.001971	0.74891	344.882
518.0000	9.55641	-0.00199438	0.749538	344.823
517.5000	8.94199	-0.00201687	0.750243	344.771
517.0000	8.53709	-0.0020409	0.751298	344.722
516.5000	7.98199	-0.00205613	0.752057	344.669
516.0000	7.53379	-0.00209166	0.752835	344.625
515.5000	7.38398	-0.00208904	0.753383	344.572
515.0000	7.17471	-0.00209687	0.753729	344.51
514.5000	6.83838	-0.00210243	0.754043	344.448
514.0000	6.37037	-0.00210996	0.754447	344.397
513.5000	6.04603	-0.00211477	0.754865	344.332
513.0000	5.64959	-0.00212778	0.75526	344.261
512.5000	5.09645	-0.00213955	0.755668	344.216
512.0000	4.9226	-0.00216644	0.756107	344.152
511.5000	4.633	-0.00218341	0.756579	344.103
511.0000	4.55379	-0.00220083	0.756988	344.056
510.5000	4.54815	-0.00221453	0.757395	344.006
510.0000	4.20249	-0.00222914	0.757852	343.954
509.5000	3.86893	-0.002277	0.758408	343.902
509.0000	3.39817	-0.0022845	0.758641	343.821
508.5000	3.23068	-0.00230207	0.758694	343.714
508.0000	3.10756	-0.00232068	0.758812	343.587
507.5000	2.41926	-0.00234871	0.759292	343.489
507.0000	2.2152	-0.0023526	0.760114	343.427
506.5000	1.95853	-0.00239054	0.760897	343.366
506.0000	1.68046	-0.00238684	0.761443	343.318
505.5000	1.36366	-0.00242491	0.761692	343.248
505.0000	1.30449	-0.00244231	0.762015	343.193
504.5000	1.00617	-0.00241333	0.762305	343.101
504.0000	0.380642	-0.00243942	0.762755	343.005
503.5000	0.29809	-0.00244255	0.762833	342.908
503.0000	0.278237	-0.0024555	0.762896	342.799
502.5000	-0.434392	-0.00244785	0.762966	342.684
502.0000	-0.833925	-0.00243496	0.762814	342.571
501.5000	-1.04775	-0.00243613	0.762471	342.428
501.0000	-1.33746	-0.00242348	0.762051	342.266
500.5000	-1.75296	-0.00242687	0.76168	342.099
500.0000	-2.06641	-0.00245026	0.761311	341.888
499.5000	-2.66033	-0.00245539	0.760375	341.613
499.0000	-2.84433	-0.00245729	0.758664	341.214
498.5000	-3.08933	-0.0024723	0.756362	340.682
498.0000	-3.57833	-0.00248904	0.754139	340.064
497.5000	-4.03682	-0.00250136	0.752231	339.308
497.0000	-4.15882	-0.00252539	0.75107	338.554
496.5000	-4.70762	-0.00253724	0.751224	337.833
496.0000	-4.9642	-0.00253308	0.752444	337.322
495.5000	-5.35618	-0.00255532	0.753454	336.952
495.0000	-6.19093	-0.00256801	0.753485	336.665
494.5000	-6.34635	-0.00257993	0.75292	336.399
494.0000	-6.94726	-0.00262047	0.751991	336.136
493.5000	-7.58886	-0.00265293	0.751142	335.864
493.0000	-7.94523	-0.00268945	0.75025	335.62
492.5000	-8.19883	-0.00270279	0.749392	335.375
492.0000	-8.66307	-0.00274331	0.748458	335.132
491.5000	-8.88342	-0.00276281	0.74753	334.932
491.0000	-9.39041	-0.0027961	0.746678	334.769
490.5000	-10.186	-0.00280612	0.74608	334.644
490.0000	-10.4254	-0.00279732	0.745343	334.557
489.5000	-10.8511	-0.00281863	0.744499	334.514
489.0000	-11.2302	-0.00280715	0.742705	334.439
488.5000	-11.5621	-0.00281997	0.739779	334.271
488.0000	-12.0715	-0.00283419	0.735527	333.866
487.5000	-12.5212	-0.00284409	0.731418	333.255
487.0000	-13.1249	-0.00286009	0.728125	332.579
486.5000	-13.5576	-0.00288098	0.724816	331.774
486.0000	-13.8698	-0.00288398	0.722117	330.979
485.5000	-14.1074	-0.00287738	0.72082	330.257
485.0000	-14.3961	-0.00287716	0.720446	329.642
484.5000	-14.8256	-0.00287286	0.719976	329.173
484.0000	-14.9536	-0.002874	0.718315	328.742
483.5000	-15.5623	-0.0028958	0.716338	328.383
483.0000	-15.6883	-0.00292487	0.714077	328.046
482.5000	-15.6793	-0.00291419	0.712218	327.771
482.0000	-15.7809	-0.00292659	0.710093	327.53
481.5000	-15.8615	-0.00293	0.7078	327.313
481.0000	-15.935	-0.00294725	0.70527	327.111
480.5000	-16.3036	-0.00295653	0.702955	326.933
480.0000	-16.4998	-0.00297798	0.700305	326.747
479.5000	-16.5058	-0.00300689	0.69696	326.545
479.0000	-16.7155	-0.00301666	0.691796	326.143
478.5000	-16.6769	-0.00302439	0.68597	325.472
478.0000	-16.8486	-0.00303435	0.682091	324.69
477.5000	-16.7091	-0.00301547	0.681521	324.149
477.0000	-16.7324	-0.00301523	0.680605	323.777
476.5000	-17.1404	-0.00302367	0.675857	323.253
476.0000	-17.3562	-0.00302343	0.669626	322.505
475.5000	-17.5448	-0.00301833	0.663456	321.537
475.0000	-17.3152	-0.00300109	0.657827	320.383
474.5000	-17.4154	-0.00298778	0.65289	319.151
474.0000	-17.6634	-0.00299133	0.647692	317.789
473.5000	-18.0983	-0.00297962	0.642151	316.209
473.0000	-18.3179	-0.00296771	0.637182	314.489
472.5000	-18.3979	-0.00295901	0.633937	312.76
472.0000	-18.3822	-0.00293646	0.633557	311.437
471.5000	-18.2538	-0.00292509	0.634195	310.474
471.0000	-18.1061	-0.00289757	0.634398	309.966
470.5000	-17.8602	-0.0028665	0.63513	309.778
470.0000	-17.7008	-0.00286372	0.634613	309.835
469.5000	-17.6194	-0.00287787	0.63045	309.797
469.0000	-17.7427	-0.00288351	0.622391	309.324
468.5000	-17.4409	-0.00287461	0.615454	308.54
468.0000	-17.4298	-0.00285177	0.611379	307.76
467.5000	-17.5822	-0.00284096	0.60932	307.178
467.0000	-17.6581	-0.0028156	0.608272	306.824
466.5000	-17.6246	-0.00279746	0.607226	306.698
466.0000	-17.3812	-0.0027625	0.605685	306.758
465.5000	-17.3043	-0.00275446	0.603872	307.031
465.0000	-16.9963	-0.00272969	0.601893	307.585
464.5000	-16.9091	-0.00274314	0.59796	308.214
464.0000	-16.7474	-0.00271632	0.591077	308.58
463.5000	-16.651	-0.00269011	0.582717	308.555
463.0000	-16.4397	-0.00266574	0.575105	308.255
462.5000	-16.536	-0.00264955	0.569281	307.863
462.0000	-16.4907	-0.0026206	0.564758	307.475
461.5000	-16.5768	-0.00258006	0.561001	307.203
461.0000	-16.1312	-0.00254401	0.557626	307.051
460.5000	-16.1082	-0.00251655	0.554009	307.039
460.0000	-15.7712	-0.00250131	0.55018	307.097
459.5000	-15.7121	-0.0024865	0.545524	307.147
459.0000	-15.3942	-0.0024616	0.539482	307.107
458.5000	-15.3146	-0.00244319	0.533144	306.954
458.0000	-15.3212	-0.00243847	0.526253	306.614
457.5000	-15.1405	-0.00242128	0.519337	306.072
457.0000	-14.9632	-0.00240249	0.513399	305.413
456.5000	-14.6831	-0.00235706	0.509326	304.841
456.0000	-14.2023	-0.00231341	0.504315	304.296
455.5000	-13.8909	-0.0022901	0.496939	303.524
455.0000	-13.7664	-0.00226519	0.490498	302.657
454.5000	-13.5548	-0.00223335	0.487219	301.972
454.0000	-13.2396	-0.00220784	0.484438	301.556
453.5000	-12.8399	-0.00218179	0.479672	301.227
453.0000	-12.5811	-0.00215913	0.47429	300.866
452.5000	-12.4199	-0.00211553	0.469086	300.485
452.0000	-12.197	-0.00210725	0.463444	300.057
451.5000	-12.1521	-0.00205599	0.458028	299.616
451.0000	-11.6586	-0.00200757	0.452894	299.191
450.5000	-11.4809	-0.00199209	0.44762	298.736
450.0000	-10.9958	-0.00195578	0.442862	298.311
449.5000	-10.7218	-0.00190143	0.439371	298.047
449.0000	-10.4562	-0.00186083	0.435971	297.917
448.5000	-10.2509	-0.00183011	0.430507	297.716
448.0000	-10.0423	-0.00181031	0.424866	297.412
447.5000	-10.0314	-0.00177882	0.421459	297.204
447.0000	-9.87135	-0.00176264	0.419469	297.249
446.5000	-9.61055	-0.00175263	0.41577	297.35
446.0000	-9.3376	-0.00173541	0.408922	297.225
445.5000	-9.36593	-0.00172387	0.401885	296.808
445.0000	-9.32392	-0.00170165	0.396468	296.292
444.5000	-8.96961	-0.00167721	0.391039	295.735
444.0000	-8.70765	-0.00163581	0.386332	295.179
443.5000	-8.35666	-0.00159318	0.381663	294.563
443.0000	-8.14584	-0.0015844	0.377931	294.03
442.5000	-7.90116	-0.00156527	0.374363	293.54
442.0000	-7.76716	-0.00153569	0.371195	293.127
441.5000	-7.86124	-0.00152397	0.367479	292.705
441.0000	-7.65391	-0.00150568	0.363937	292.315
440.5000	-7.59984	-0.00149932	0.360289	291.933
440.0000	-7.32355	-0.00148076	0.356499	291.549
439.5000	-7.04584	-0.0014411	0.352421	291.137
439.0000	-6.96699	-0.00140021	0.348093	290.711
438.5000	-6.64694	-0.00136123	0.343744	290.287
438.0000	-6.38343	-0.00130158	0.339304	289.872
437.5000	-6.16718	-0.00124579	0.335241	289.48
437.0000	-5.72794	-0.00120861	0.331075	289.085
436.5000	-5.45154	-0.00116978	0.327659	288.758
436.0000	-5.26317	-0.0011407	0.324787	288.486
435.5000	-5.03371	-0.00112296	0.321612	288.224
435.0000	-4.67138	-0.00109062	0.317951	287.967
434.5000	-4.44978	-0.00107315	0.313992	287.698
434.0000	-4.19593	-0.00104232	0.310129	287.401
433.5000	-3.97493	-0.00102227	0.306524	287.085
433.0000	-3.75173	-0.00100389	0.302843	286.738
432.5000	-3.44437	-0.000957879	0.299541	286.408
432.0000	-3.14138	-0.000917417	0.29616	286.052
431.5000	-2.998	-0.000907912	0.29275	285.695
431.0000	-2.63377	-0.000903478	0.289274	285.348
430.5000	-2.38634	-0.000872459	0.285985	284.999
430.0000	-2.3255	-0.000860149	0.283072	284.665
429.5000	-2.17263	-0.000849811	0.279797	284.306
429.0000	-1.84362	-0.000832161	0.276598	283.945
428.5000	-1.63255	-0.000811599	0.273773	283.598
428.0000	-1.60027	-0.000802741	0.270796	283.224
427.5000	-1.47552	-0.000791858	0.268077	282.902
427.0000	-1.43566	-0.000768235	0.265246	282.579
426.5000	-1.58075	-0.000756396	0.262331	282.248
426.0000	-1.35587	-0.000732941	0.259636	281.895
425.5000	-1.32645	-0.00071933	0.256697	281.503
425.0000	-1.2501	-0.000692192	0.253687	281.085
424.5000	-1.1417	-0.000669407	0.250924	280.637
424.0000	-1.00428	-0.000672134	0.248809	280.214
423.5000	-1.18895	-0.000660922	0.247174	279.875
423.0000	-1.02876	-0.000633718	0.245273	279.582
422.5000	-1.0098	-0.000609773	0.243455	279.322
422.0000	-0.905691	-0.000607392	0.241587	279.072
421.5000	-1.00571	-0.000593223	0.239474	278.84
421.0000	-1.03214	-0.000586597	0.237475	278.623
420.5000	-0.975618	-0.000581959	0.235518	278.397
420.0000	-1.11961	-0.000563783	0.233427	278.168
419.5000	-0.939682	-0.000551365	0.231265	277.93
419.0000	-1.01084	-0.000536248	0.22935	277.695
418.5000	-0.766553	-0.000524546	0.227837	277.506
418.0000	-0.555927	-0.000520524	0.226492	277.316
417.5000	-0.531943	-0.000526853	0.225346	277.14
417.0000	-0.330419	-0.00050082	0.224436	277
416.5000	-0.0891108	-0.000487542	0.223802	276.922
416.0000	-0.147128	-0.00047811	0.222839	276.874
415.5000	0.136347	-0.000474243	0.221263	276.793
415.0000	0.297056	-0.000469435	0.219725	276.656
414.5000	0.484444	-0.000459173	0.218568	276.491
414.0000	0.529679	-0.000451868	0.217395	276.327
413.5000	0.643707	-0.000451893	0.216149	276.147
413.0000	0.884303	-0.0004279	0.215335	275.993
412.5000	0.885016	-0.000418588	0.214468	275.862
412.0000	0.898749	-0.000423816	0.213778	275.75
411.5000	0.89074	-0.000421469	0.213311	275.651
411.0000	0.832678	-0.000424022	0.212843	275.573
410.5000	1.03353	-0.000419558	0.21239	275.502
410.0000	0.970346	-0.00042816	0.211883	275.438
409.5000	0.905627	-0.000421743	0.211642	275.393
409.0000	0.894172	-0.000415848	0.211267	275.361
408.5000	0.969059	-0.000430844	0.210783	275.335
408.0000	0.880386	-0.000434912	0.210277	275.319
407.5000	0.962462	-0.000432594	0.209531	275.277
407.0000	0.890976	-0.000428645	0.208709	275.221
406.5000	0.89445	-0.000415694	0.208271	275.173
406.0000	0.879749	-0.000420778	0.20775	275.105
405.5000	0.851741	-0.000404356	0.207368	275.038
405.0000	0.877544	-0.000386965	0.207111	274.949
404.5000	0.789777	-0.000394047	0.20684	274.85
404.0000	0.952442	-0.000389785	0.206505	274.718
403.5000	1.04805	-0.00039941	0.206084	274.559
403.0000	1.17511	-0.000396273	0.205641	274.376
402.5000	1.2226	-0.000374043	0.2056	274.188
402.0000	1.20984	-0.000364907	0.205586	274.006
401.5000	1.36741	-0.000353334	0.205809	273.821
401.0000	1.48924	-0.000363705	0.205779	273.647
400.5000	1.49087	-0.000347177	0.205909	273.49
400.0000	1.47729	-0.000338475	0.205887	273.349
399.5000	1.52247	-0.00033928	0.206261	273.244
399.0000	1.48771	-0.000338656	0.206742	273.179
398.5000	1.48038	-0.000345066	0.206891	273.111
398.0000	1.41497	-0.000339713	0.20726	273.081
397.5000	1.41794	-0.000345933	0.207569	273.065
397.0000	1.42683	-0.000368039	0.208048	273.082
396.5000	1.35782	-0.00038792	0.208411	273.122
396.0000	1.20746	-0.000388147	0.209257	273.199
395.5000	1.21863	-0.000394538	0.209714	273.291
395.0000	1.12939	-0.000399871	0.210215	273.418
394.5000	1.14612	-0.000409844	0.21077	273.568
394.0000	1.30636	-0.000394389	0.211363	273.745
393.5000	1.41063	-0.000396278	0.211931	273.947
393.0000	1.40573	-0.000403351	0.21228	274.149
392.5000	1.36824	-0.00040233	0.212713	274.35
392.0000	1.44784	-0.000408981	0.213057	274.537
391.5000	1.50964	-0.000416312	0.213609	274.703
391.0000	1.567	-0.000419069	0.214149	274.841
390.5000	1.48604	-0.00041452	0.214775	274.985
390.0000	1.55477	-0.000433589	0.215428	275.119
389.5000	1.52726	-0.000444035	0.216178	275.242
389.0000	1.5062	-0.000429498	0.216969	275.357
388.5000	1.61002	-0.00041805	0.217818	275.461
388.0000	1.69655	-0.000422434	0.218509	275.563
387.5000	1.74377	-0.000427598	0.219146	275.662
387.0000	1.90581	-0.000412849	0.220353	275.755
386.5000	2.0037	-0.00040722	0.221533	275.846
386.0000	1.87816	-0.00042727	0.222515	275.927
385.5000	1.77102	-0.000436239	0.223408	275.98
385.0000	1.786	-0.000453183	0.224457	276.043
384.5000	1.70747	-0.000455532	0.225573	276.096
384.0000	1.80389	-0.000458774	0.226766	276.153
383.5000	1.87603	-0.000464903	0.227882	276.21
383.0000	1.93401	-0.000459522	0.228995	276.274
382.5000	1.93067	-0.000460776	0.229964	276.328
382.0000	1.92465	-0.000458665	0.231429	276.396
381.5000	1.99841	-0.000459383	0.232637	276.46
381.0000	1.96683	-0.000476238	0.233765	276.528
380.5000	2.02444	-0.000498743	0.234919	276.612
380.0000	2.01461	-0.000504836	0.235884	276.68
379.5000	2.13884	-0.000511299	0.237126	276.76
379.0000	2.11399	-0.000523654	0.238229	276.822
378.5000	2.07252	-0.000532496	0.239195	276.906
378.0000	2.1445	-0.000534499	0.239924	276.978
377.5000	2.25763	-0.000538743	0.240833	277.059
377.0000	2.27125	-0.000542956	0.241627	277.128
376.5000	2.41349	-0.000541067	0.24255	277.193
376.0000	2.28415	-0.000563503	0.24344	277.258
375.5000	2.2196	-0.000572526	0.243986	277.294
375.0000	2.15976	-0.000566737	0.244681	277.35
374.5000	2.09206	-0.00057933	0.245584	277.401
374.0000	2.18052	-0.000588914	0.246261	277.438
373.5000	2.17773	-0.000599943	0.246833	277.473
373.0000	2.20294	-0.000610548	0.247259	277.511
372.5000	2.44664	-0.000592277	0.247752	277.539
372.0000	2.46278	-0.00059474	0.248512	277.569
371.5000	2.4766	-0.000601266	0.249369	277.611
371.0000	2.36973	-0.000591928	0.250019	277.66
370.5000	2.37886	-0.000587375	0.250769	277.724
370.0000	2.32606	-0.000593991	0.25144	277.77
369.5000	2.15312	-0.000601677	0.252119	277.821
369.0000	2.27396	-0.000603851	0.252792	277.875
368.5000	2.20237	-0.000612497	0.253746	277.958
368.0000	2.20927	-0.000609351	0.254424	278.038
367.5000	2.24191	-0.000621863	0.255093	278.127
367.0000	2.31084	-0.000626559	0.256037	278.227
366.5000	2.34802	-0.000618525	0.256982	278.325
366.0000	2.40696	-0.000611183	0.257944	278.431
365.5000	2.36114	-0.000610519	0.258772	278.533
365.0000	2.32795	-0.000621075	0.259697	278.627
364.5000	2.25432	-0.000623429	0.26084	278.731
364.0000	2.22238	-0.000641581	0.262036	278.843
363.5000	2.28461	-0.000647231	0.262948	278.953
363.0000	2.30915	-0.000644298	0.263641	279.051
362.5000	2.47444	-0.000669368	0.264441	279.154
362.0000	2.61086	-0.000669279	0.265328	279.255
361.5000	2.72765	-0.000661023	0.266304	279.362
361.0000	2.65667	-0.000665525	0.267352	279.467
360.5000	2.73663	-0.000658187	0.268079	279.566
360.0000	2.75449	-0.00066831	0.268868	279.669
359.5000	2.7873	-0.000667817	0.269947	279.777
359.0000	2.73448	-0.000657503	0.271092	279.878
358.5000	2.91577	-0.000677033	0.272033	279.972
358.0000	2.9841	-0.000704832	0.27252	280.058
357.5000	3.029	-0.00071998	0.273018	280.143
357.0000	3.10055	-0.000726895	0.273683	280.236
356.5000	3.13839	-0.000722613	0.274519	280.34
356.0000	3.2423	-0.000727582	0.27528	280.436
355.5000	3.02491	-0.000726049	0.27571	280.52
355.0000	3.05594	-0.00073435	0.276329	280.626
354.5000	3.09185	-0.000746502	0.277154	280.723
354.0000	2.96014	-0.000743773	0.27795	280.818
353.5000	2.89191	-0.000759472	0.278711	280.914
353.0000	2.69839	-0.00077416	0.279295	281.011
352.5000	2.71931	-0.000785349	0.279959	281.125
352.0000	2.70051	-0.000798189	0.280811	281.223
351.5000	2.77366	-0.00080441	0.281395	281.303
351.0000	2.86934	-0.000808143	0.281891	281.382
350.5000	2.85475	-0.000816427	0.282294	281.472
350.0000	2.62921	-0.000819166	0.282786	281.576
349.5000	2.50371	-0.0008166	0.283705	281.682
349.0000	2.58954	-0.000820135	0.284572	281.796
348.5000	2.64216	-0.000825776	0.285464	281.909
348.0000	2.73248	-0.000837934	0.286041	282.002
347.5000	2.65501	-0.000854693	0.286453	282.092
347.0000	2.71629	-0.000858763	0.287156	282.202
346.5000	2.67586	-0.000870686	0.287793	282.298
346.0000	2.53364	-0.000873786	0.288472	282.394
345.5000	2.6811	-0.000876726	0.289373	282.501
345.0000	2.77149	-0.000878309	0.290117	282.612
344.5000	2.86074	-0.000890579	0.290847	282.706
344.0000	2.98186	-0.000893818	0.291549	282.796
343.5000	3.0488	-0.000899664	0.2924	282.899
343.0000	3.22102	-0.000904707	0.293532	283.013
342.5000	3.18846	-0.000918876	0.29443	283.117
342.0000	3.27844	-0.000934741	0.295596	283.235
341.5000	3.26989	-0.000941621	0.296597	283.346
341.0000	3.15766	-0.000943266	0.297728	283.447
340.5000	2.97469	-0.000965394	0.298977	283.559
340.0000	3.0456	-0.000982123	0.300033	283.662
339.5000	3.2154	-0.000975076	0.301096	283.774
339.0000	3.26054	-0.000988282	0.302163	283.87
338.5000	3.31297	-0.000998636	0.303182	283.973
338.0000	3.4574	-0.00101425	0.304212	284.084
337.5000	3.60331	-0.00101416	0.30533	284.201
337.0000	3.46205	-0.00105271	0.306396	284.31
336.5000	3.56312	-0.00106455	0.307293	284.403
336.0000	3.51146	-0.00108475	0.308503	284.53
335.5000	3.52461	-0.00109736	0.309451	284.644
335.0000	3.50003	-0.00110258	0.310154	284.749
334.5000	3.4037	-0.00112685	0.311246	284.882
334.0000	3.32119	-0.00113201	0.312354	285.008
333.5000	3.34605	-0.00116542	0.313457	285.147
333.0000	3.55007	-0.00117551	0.314409	285.275
332.5000	3.69099	-0.00118796	0.315321	285.406
332.0000	4.04669	-0.00120181	0.316223	285.528
331.5000	3.9991	-0.0012229	0.317155	285.659
331.0000	4.05852	-0.00124254	0.318261	285.806
330.5000	4.25424	-0.00125555	0.319421	285.946
330.0000	4.28902	-0.00128375	0.320616	286.086
329.5000	4.23617	-0.0013116	0.321979	286.231
329.0000	4.13542	-0.00133342	0.323306	286.382
328.5000	4.21207	-0.00133652	0.324529	286.521
328.0000	4.14994	-0.00135836	0.32591	286.662
327.5000	4.23365	-0.0013645	0.327234	286.786
327.0000	4.24544	-0.00137057	0.328647	286.905
326.5000	4.17383	-0.00139968	0.330361	287.05
326.0000	4.12816	-0.00141638	0.331825	287.196
325.5000	4.22625	-0.00143029	0.333205	287.348
325.0000	4.23878	-0.00143433	0.334553	287.492
324.5000	4.27999	-0.00145947	0.336024	287.654
324.0000	4.34904	-0.00147333	0.337604	287.826
323.5000	4.02544	-0.00148808	0.338913	287.993
323.0000	4.1819	-0.00148359	0.340598	288.179
322.5000	4.00935	-0.00151274	0.342607	288.371
322.0000	3.86872	-0.00152687	0.344446	288.56
321.5000	3.73346	-0.00155192	0.346292	288.753
321.0000	3.77589	-0.0015695	0.347835	288.937
320.5000	3.73395	-0.00158286	0.349449	289.13
320.0000	3.81561	-0.00160309	0.351096	289.316
319.5000	3.90489	-0.00161466	0.352792	289.512
319.0000	3.84425	-0.00163838	0.3545	289.727
318.5000	3.73609	-0.0016688	0.356358	289.956
318.0000	3.8676	-0.00168056	0.358128	290.159
317.5000	3.97535	-0.00169052	0.359935	290.331
317.0000	3.84629	-0.00170829	0.36202	290.51
316.5000	3.61967	-0.00173481	0.36395	290.689
316.0000	3.47362	-0.00176006	0.365894	290.887
315.5000	3.36288	-0.00179422	0.367854	291.084
315.0000	3.34414	-0.00182472	0.370193	291.309
314.5000	3.23641	-0.00183815	0.372198	291.512
314.0000	3.21192	-0.00184688	0.374171	291.731
313.5000	3.24913	-0.00186637	0.376094	291.948
313.0000	3.24668	-0.00187421	0.378063	292.179
312.5000	3.05964	-0.00189237	0.380262	292.421
312.0000	3.06475	-0.00190787	0.382581	292.671
311.5000	2.99987	-0.0019294	0.384811	292.917
311.0000	3.02939	-0.00194735	0.387167	293.178
310.5000	2.82875	-0.00197231	0.389475	293.462
310.0000	2.79865	-0.00196776	0.391705	293.734
309.5000	2.81348	-0.00199536	0.393939	294.031
309.0000	2.51888	-0.00200823	0.396414	294.355
308.5000	2.51479	-0.00201664	0.399175	294.7
308.0000	2.4829	-0.00201031	0.40202	295.014
307.5000	2.47062	-0.00201891	0.405262	295.375
307.0000	2.49924	-0.00203303	0.40792	295.7
306.5000	2.52986	-0.00203732	0.410939	296.07
306.0000	2.63943	-0.00205851	0.414255	296.439
305.5000	2.43041	-0.00209284	0.417857	296.832
305.0000	2.31817	-0.00211424	0.421625	297.227
304.5000	2.24696	-0.00212663	0.425881	297.671
304.0000	2.268	-0.00214364	0.429943	298.127
303.5000	2.43224	-0.00216709	0.434152	298.586
303.0000	2.3921	-0.00219079	0.438757	299.092
302.5000	2.22983	-0.00221866	0.443737	299.622
302.0000	2.43062	-0.00222667	0.44907	300.18
301.5000	2.26736	-0.0022617	0.454232	300.741
301.0000	2.06365	-0.0022765	0.459772	301.321
300.5000	2.07761	-0.00229831	0.46484	301.847
300.0000	1.92441	-0.00231919	0.470727	302.476
299.5000	1.82351	-0.00235026	0.476355	303.085
299.0000	1.74368	-0.00236883	0.482215	303.704
298.5000	1.41556	-0.00237953	0.48846	304.351
298.0000	1.09857	-0.0023938	0.494225	304.952
297.5000	1.19066	-0.00239507	0.499881	305.577
297.0000	0.984694	-0.00239893	0.505079	306.142
296.5000	1.10669	-0.00238804	0.510103	306.698
296.0000	0.925831	-0.00236988	0.51522	307.243
295.5000	0.877178	-0.00237237	0.520756	307.773
295.0000	0.724331	-0.00235331	0.525934	308.257
294.5000	0.709573	-0.00233308	0.530588	308.75
294.0000	0.634395	-0.00231523	0.535302	309.282
293.5000	0.400885	-0.0023027	0.539317	309.734
293.0000	0.310507	-0.00225511	0.543503	310.222
292.5000	0.25351	-0.00223597	0.547939	310.741
292.0000	0.294612	-0.00222595	0.551709	311.221
291.5000	0.433989	-0.00217874	0.555553	311.701
291.0000	0.231348	-0.00213844	0.559279	312.168
290.5000	0.312626	-0.00209224	0.563263	312.66
290.0000	0.294416	-0.00204256	0.566995	313.129
289.5000	0.324517	-0.00200707	0.57053	313.578
289.0000	0.0664306	-0.00196474	0.574205	314.034
288.5000	0.137291	-0.00190826	0.578111	314.543
288.0000	0.010341	-0.00186889	0.581926	315.038
287.5000	-0.202578	-0.00183019	0.585831	315.569
287.0000	-0.293421	-0.00180362	0.589525	316.124
286.5000	-0.463463	-0.00174419	0.593139	316.675
286.0000	-0.439059	-0.00170825	0.596915	317.2
285.5000	-0.325953	-0.00164966	0.601085	317.712
285.0000	-0.259017	-0.00161374	0.605483	318.256
284.5000	-0.446321	-0.00156568	0.60934	318.752
284.0000	-0.587727	-0.00151825	0.613489	319.281
283.5000	-0.679192	-0.00146634	0.617977	319.834
283.0000	-0.734612	-0.00142982	0.622186	320.362
282.5000	-0.858103	-0.00137813	0.626269	320.923
282.0000	-1.00585	-0.00133951	0.630561	321.5
281.5000	-0.951753	-0.00129883	0.635023	322.08
281.0000	-0.848789	-0.00126961	0.639654	322.663
280.5000	-1.02594	-0.00122622	0.644603	323.291
280.0000	-0.952321	-0.00119553	0.650027	323.936
279.5000	-1.16817	-0.00115282	0.655398	324.605
279.0000	-1.35088	-0.00108518	0.660705	325.265
278.5000	-1.53775	-0.00104564	0.666438	325.987
278.0000	-1.567	-0.00100363	0.672853	326.786
277.5000	-1.86743	-0.000962501	0.678927	327.527
277.0000	-1.98412	-0.000930024	0.685393	328.335
276.5000	-2.20774	-0.000900705	0.692203	329.168
276.0000	-2.27335	-0.000887845	0.698669	329.947
275.5000	-2.33907	-0.000847272	0.706012	330.824
275.0000	-2.51224	-0.000807576	0.713678	331.737
274.5000	-2.70362	-0.000783275	0.721664	332.689
274.0000	-2.86069	-0.000745362	0.730527	333.74
273.5000	-3.04253	-0.000700632	0.738667	334.724
273.0000	-3.34441	-0.000650794	0.747564	335.783
272.5000	-3.36967	-0.000599082	0.756514	336.867
272.0000	-3.44668	-0.000555953	0.765923	338.007
271.5000	-3.64693	-0.000511119	0.77608	339.264
271.0000	-3.68868	-0.000484532	0.786208	340.504
270.5000	-3.78076	-0.00045742	0.796606	341.783
270.0000	-3.82547	-0.000430859	0.807404	343.108
269.5000	-4.30567	-0.000419808	0.818706	344.489
269.0000	-4.39332	-0.000404504	0.829681	345.848
268.5000	-4.08663	-0.000350018	0.84155	347.337
268.0000	-4.22034	-0.000312034	0.853867	348.898
267.5000	-4.27094	-0.000276156	0.866609	350.521
267.0000	-4.27728	-0.000247508	0.880574	352.298
266.5000	-4.00106	-0.000214679	0.894788	354.121
266.0000	-4.34974	-0.000201045	0.90786	355.805
265.5000	-3.7853	-0.000166741	0.92188	357.614
265.0000	-4.15951	-0.000141906	0.936873	359.551
264.5000	-4.04126	-0.000137268	0.951414	361.447
264.0000	-3.70208	-0.000126445	0.966142	363.367
263.5000	-3.42473	-0.000149476	0.981552	365.402
263.0000	-2.94685	-0.000113412	0.995459	367.257
262.5000	-2.88987	-0.000121156	1.01099	369.326
262.0000	-2.84918	-9.4807E-005	1.02588	371.315
261.5000	-2.22917	-7.29771E-005	1.04075	373.335
261.0000	-1.64776	-0.000104705	1.05478	375.262
260.5000	-1.15061	-9.03332E-005	1.06974	377.307
260.0000	-1.00879	-6.90262E-005	1.08482	379.382
259.5000	-0.659671	-0.000104511	1.10015	381.493
259.0000	-0.204813	-0.000100656	1.11544	383.634
258.5000	0.0347923	-0.000133292	1.13117	385.835
258.0000	0.696244	-0.000144004	1.14731	388.097
257.5000	1.26567	-0.000183529	1.16322	390.304
257.0000	1.58592	-0.000279685	1.18049	392.691
256.5000	1.75469	-0.000370819	1.19734	395.044
256.0000	2.21434	-0.000370288	1.21529	397.596
255.5000	2.57233	-0.00039535	1.23379	400.241
255.0000	2.38088	-0.000471616	1.25309	403.005
254.5000	2.72606	-0.000502744	1.27233	405.731
254.0000	2.90764	-0.000567702	1.29216	408.572
253.5000	3.48521	-0.00063433	1.3146	411.824
253.0000	3.13412	-0.000697834	1.33561	414.887
252.5000	3.12137	-0.000777255	1.36805	419.641
252.0000	3.34919	-0.000936085	1.39591	423.777
251.5000	3.73605	-0.000989922	1.42079	427.533
251.0000	3.15034	-0.00113074	1.44665	431.457
250.5000	3.38853	-0.00120439	1.4731	435.54
250.0000	2.88373	-0.00136676	1.49903	439.596

##### Extended Information
[Comments]
Sample name	JS187+JS90_5E-5_HEPES_48h_100-0
Comment
User
Division
Company	Labo systeme complexes hors equilibre

[Detailed Information]
Creation date	3/22/2024 10:23 AM

Data array type	Linear data array * 4
Horizontal axis	Wavelength [nm]
Vertical axis(1)	CD [mdeg]
Vertical axis(2)	LD [dOD]
Vertical axis(3)	Abs
Vertical axis(4)	HT [V]
Start	700 nm
End	250 nm
Data interval	0.5 nm
Data points	901     

[Measurement Information]
Instrument name	CD Jasco
Model name	J-1500
Serial No.	A005261638

Detector	PM-539
Detector S/N	A0052PM539
  Lock-in amp.	X mode
  HT volt	Auto

Detector	EXPML-535
Detector S/N	A0001
  Lock-in amp.	X mode
  HT volt	Auto

Measurement date	3/22/2024 10:23 AM

Overload detect	1
Photometric mode	CD, LD, Abs, HT
Measure range	700 - 250 nm
Data pitch	0.5 nm
CD scale	200 mdeg/1.0 dOD
FL scale	200 mdeg/1.0 dOD
D.I.T.	1 sec
Bandwidth	1.00 nm
Start mode	Immediately
Scanning speed	500 nm/min
Baseline correction	Baseline
Shutter control	Auto


