TITLE	10% S-JS after 30 hrs
DATA TYPE	
ORIGIN	JASCO
OWNER	
DATE	25/11/21
TIME	17:48:04
SPECTROMETER/DATA SYSTEM	
LOCALE	1033
RESOLUTION	
DELTAX	-0.5
XUNITS	NANOMETERS
YUNITS	CD [mdeg]
Y2UNITS	HT [V]
Y3UNITS	ABSORBANCE
Y4UNITS	LD [dOD]
FIRSTX	  800.0000
LASTX	  300.0000
NPOINTS	    1001
FIRSTY	     0.61132
MAXY	   136.16824
MINY	   -54.04781
XYDATA
800.0000	0.611324	358.301	-0.073764	-0.000374393
799.5000	0.0600862	357.812	-0.0747121	-0.000391985
799.0000	0.0279202	357.305	-0.0737711	-0.00040005
798.5000	0.313159	356.845	-0.0726466	-0.000405192
798.0000	0.399379	356.46	-0.072467	-0.000381566
797.5000	0.438938	356.114	-0.0726526	-0.000397413
797.0000	0.0560602	355.869	-0.0729745	-0.000359846
796.5000	0.370982	355.65	-0.0723591	-0.000400195
796.0000	-0.450856	355.458	-0.0728631	-0.00041147
795.5000	-0.327436	355.299	-0.072223	-0.000437372
795.0000	-0.659844	355.194	-0.0721521	-0.00049741
794.5000	-0.616947	355.158	-0.0710519	-0.000487839
794.0000	-0.563579	355.225	-0.0702817	-0.00050041
793.5000	-0.579184	355.407	-0.0691679	-0.000492045
793.0000	-1.0272	355.748	-0.0682615	-0.000529306
792.5000	-0.984629	356.201	-0.0666261	-0.00051885
792.0000	-1.21393	356.777	-0.0648032	-0.00048435
791.5000	-1.18053	357.373	-0.0641574	-0.000467835
791.0000	-0.729993	357.974	-0.0657033	-0.000449794
790.5000	-0.297184	358.47	-0.0701252	-0.000459242
790.0000	-0.237093	358.807	-0.0736778	-0.000489049
789.5000	-0.308842	359.028	-0.0760175	-0.000492919
789.0000	-0.446504	359.055	-0.0784782	-0.000557579
788.5000	-0.556104	358.94	-0.0805378	-0.000535477
788.0000	-0.555584	358.736	-0.0838578	-0.00049105
787.5000	-0.470942	358.468	-0.0833058	-0.00049707
787.0000	-0.587582	358.155	-0.0836883	-0.000477587
786.5000	-0.631135	357.831	-0.0846689	-0.000449595
786.0000	-1.26158	357.472	-0.0835026	-0.000473703
785.5000	-1.531	357.098	-0.0829537	-0.00049253
785.0000	-1.25568	356.703	-0.0829944	-0.000452729
784.5000	-1.51319	356.292	-0.0835577	-0.000519928
784.0000	-1.41137	355.888	-0.0854837	-0.000528336
783.5000	-1.59914	355.395	-0.0882102	-0.000517937
783.0000	-1.15675	354.83	-0.0900574	-0.000540758
782.5000	-1.04076	354.193	-0.0909288	-0.000516743
782.0000	-0.895708	353.537	-0.092299	-0.000480648
781.5000	-0.586255	352.885	-0.0934239	-0.000471024
781.0000	-1.00968	352.242	-0.094739	-0.000431423
780.5000	-1.12977	351.508	-0.0940684	-0.000474519
780.0000	-1.01642	350.734	-0.0938911	-0.000485871
779.5000	-1.54357	349.909	-0.0921779	-0.000519462
779.0000	-1.51777	349.101	-0.0921068	-0.000548167
778.5000	-1.31845	348.221	-0.0912361	-0.000514253
778.0000	-0.913793	347.284	-0.0906895	-0.000519333
777.5000	-0.669355	346.299	-0.090579	-0.000509186
777.0000	-0.557036	345.102	-0.0901215	-0.000486556
776.5000	-0.0559716	343.458	-0.0907171	-0.000498184
776.0000	0.148369	341.411	-0.0930646	-0.000457226
775.5000	0.445173	339.021	-0.0944661	-0.000462768
775.0000	0.425373	336.456	-0.0935968	-0.000465898
774.5000	-0.128395	333.611	-0.090101	-0.000458478
774.0000	-0.351391	330.771	-0.0854431	-0.000460493
773.5000	-0.185161	328.079	-0.0788006	-0.000472818
773.0000	-0.0965503	325.604	-0.0714669	-0.000477319
772.5000	-0.191335	323.449	-0.063547	-0.000463651
772.0000	0.282706	321.799	-0.0549778	-0.00048412
771.5000	0.613814	320.637	-0.0472892	-0.000441974
771.0000	0.551357	319.769	-0.0404439	-0.000419621
770.5000	0.0530178	319.105	-0.0346556	-0.000418096
770.0000	-0.134859	318.705	-0.0288606	-0.000431218
769.5000	-0.0340645	318.598	-0.0238119	-0.000438502
769.0000	-0.565867	318.855	-0.0169056	-0.000454223
768.5000	-0.500567	319.586	-0.00973272	-0.000448251
768.0000	-0.630149	320.786	-0.0035547	-0.000413063
767.5000	-0.856149	322.355	-0.000498855	-0.000410979
767.0000	-0.769669	324.185	0.000734105	-0.000434425
766.5000	-0.60474	325.753	6.52092E-005	-0.000451071
766.0000	-0.737963	327.262	-0.00190378	-0.000456297
765.5000	-0.8646	328.608	-0.00502996	-0.000485803
765.0000	-0.741796	329.893	-0.00829281	-0.000457956
764.5000	-0.798432	330.978	-0.0126558	-0.000464449
764.0000	-0.805416	331.744	-0.0177098	-0.000451483
763.5000	-0.80265	332.215	-0.0231546	-0.000448144
763.0000	-0.814797	332.467	-0.0265438	-0.000472959
762.5000	-0.576857	332.615	-0.0299603	-0.000476981
762.0000	0.150728	332.676	-0.0316789	-0.000461827
761.5000	-0.152429	332.684	-0.0336612	-0.000489987
761.0000	0.274992	332.595	-0.0353303	-0.000476809
760.5000	0.293826	332.443	-0.0378976	-0.000450547
760.0000	0.358019	332.264	-0.0392132	-0.000442531
759.5000	0.045494	332.051	-0.0395751	-0.000457772
759.0000	0.32792	331.791	-0.0403731	-0.000478882
758.5000	0.030933	331.533	-0.04076	-0.000493594
758.0000	-0.301015	331.316	-0.0402693	-0.000483689
757.5000	-0.460482	331.11	-0.0406536	-0.000475057
757.0000	-0.375093	330.941	-0.0414888	-0.000462891
756.5000	0.0118602	330.787	-0.0428256	-0.000458079
756.0000	0.183472	330.667	-0.0429401	-0.00044067
755.5000	0.293974	330.548	-0.0432742	-0.000421929
755.0000	0.576691	330.426	-0.0453562	-0.000411812
754.5000	0.315009	330.271	-0.0475839	-0.000418454
754.0000	0.0843594	330.097	-0.0486436	-0.00040591
753.5000	-0.22614	329.888	-0.049212	-0.00040881
753.0000	-0.497605	329.635	-0.0500822	-0.000401919
752.5000	-0.566563	329.365	-0.0513811	-0.00039754
752.0000	-0.400361	329.013	-0.0520817	-0.000398397
751.5000	0.0284869	328.615	-0.0531241	-0.000426853
751.0000	-0.08015	328.235	-0.0528772	-0.000415324
750.5000	0.375174	327.81	-0.0519443	-0.000392165
750.0000	0.581348	327.346	-0.0507677	-0.000390037
749.5000	0.554123	326.875	-0.0493635	-0.000392672
749.0000	0.580271	326.408	-0.0466056	-0.00039546
748.5000	0.377493	325.982	-0.0437272	-0.000393743
748.0000	0.312319	325.605	-0.0404327	-0.00039825
747.5000	0.140743	325.31	-0.036443	-0.000420533
747.0000	0.257893	325.083	-0.0325999	-0.000396109
746.5000	0.797328	324.911	-0.0297638	-0.000378202
746.0000	1.12149	324.78	-0.0289417	-0.000374995
745.5000	1.62249	324.668	-0.0296906	-0.000401207
745.0000	1.94536	324.553	-0.0297761	-0.000408719
744.5000	1.57164	324.412	-0.0306099	-0.000405074
744.0000	1.81318	324.212	-0.0314893	-0.000411296
743.5000	2.03614	323.934	-0.0322068	-0.000385287
743.0000	1.91698	323.59	-0.0349587	-0.000379059
742.5000	1.90246	323.224	-0.0365398	-0.00036806
742.0000	2.1052	322.807	-0.0372738	-0.000358551
741.5000	2.47223	322.378	-0.037738	-0.000347026
741.0000	2.20333	321.962	-0.0373835	-0.000350293
740.5000	2.42201	321.567	-0.0367301	-0.00034822
740.0000	2.35904	321.18	-0.0373226	-0.000366662
739.5000	2.28739	320.803	-0.0385711	-0.000391086
739.0000	1.87527	320.477	-0.0382065	-0.000399945
738.5000	1.75316	320.147	-0.0387492	-0.000413571
738.0000	1.82614	319.872	-0.036356	-0.000409507
737.5000	1.57622	319.64	-0.0334338	-0.000413397
737.0000	1.20569	319.495	-0.0298164	-0.000443813
736.5000	1.38615	319.45	-0.0264254	-0.000441161
736.0000	1.71442	319.513	-0.0230824	-0.000461498
735.5000	1.44967	319.741	-0.0201434	-0.000480684
735.0000	1.05321	320.136	-0.0178441	-0.000452762
734.5000	1.41351	320.609	-0.0145001	-0.000466293
734.0000	1.31936	321.184	-0.0138034	-0.000476577
733.5000	1.56109	321.847	-0.0134493	-0.000460669
733.0000	1.1213	322.47	-0.0143745	-0.00043498
732.5000	1.61702	323.101	-0.0173977	-0.000429169
732.0000	1.41505	323.673	-0.0193038	-0.000419187
731.5000	1.50609	324.175	-0.0216178	-0.000402521
731.0000	1.67887	324.577	-0.0236918	-0.000401732
730.5000	1.73678	324.918	-0.0252537	-0.000424324
730.0000	1.50756	325.197	-0.0271168	-0.000432436
729.5000	1.39814	325.41	-0.0293855	-0.000427222
729.0000	1.17731	325.553	-0.0319614	-0.000394654
728.5000	0.795872	325.646	-0.0341022	-0.00038704
728.0000	0.510893	325.638	-0.0358297	-0.000387588
727.5000	0.686522	325.525	-0.0369964	-0.000368353
727.0000	0.942962	325.316	-0.0384066	-0.000374554
726.5000	0.643574	325.007	-0.0397063	-0.000383487
726.0000	0.613023	324.634	-0.0407488	-0.000374942
725.5000	0.210996	324.203	-0.0423395	-0.000409345
725.0000	0.18023	323.674	-0.0435625	-0.000451866
724.5000	-0.221475	323.064	-0.0439587	-0.000482827
724.0000	-0.254206	322.371	-0.0435376	-0.000465954
723.5000	0.111929	321.632	-0.0424874	-0.000455634
723.0000	-0.0346721	320.856	-0.0413936	-0.000477124
722.5000	-0.202358	320.078	-0.0393901	-0.000447562
722.0000	-0.0678969	319.313	-0.036814	-0.000452437
721.5000	0.300794	318.579	-0.0341967	-0.000456169
721.0000	0.368963	317.889	-0.0308075	-0.000447399
720.5000	0.855501	317.24	-0.0266119	-0.000437454
720.0000	1.21534	316.705	-0.0234028	-0.000421892
719.5000	0.856485	316.293	-0.0201382	-0.00043879
719.0000	1.15582	316.028	-0.0158504	-0.000455042
718.5000	1.48815	315.844	-0.011946	-0.000456271
718.0000	1.4411	315.786	-0.00841209	-0.000426463
717.5000	1.54731	315.822	-0.00544133	-0.00039358
717.0000	1.30672	315.956	-0.00280557	-0.000409871
716.5000	1.49081	316.174	-0.000538166	-0.000383874
716.0000	1.88655	316.514	0.000707685	-0.000405541
715.5000	1.64223	316.899	0.0026541	-0.000385255
715.0000	1.84325	317.406	0.00322636	-0.000382313
714.5000	1.74449	317.972	0.00317688	-0.000363488
714.0000	1.91722	318.55	0.00194169	-0.000343545
713.5000	2.11804	319.183	0.000386637	-0.000355036
713.0000	2.02422	319.768	-0.00303367	-0.000354245
712.5000	1.91416	320.376	-0.00560405	-0.000367217
712.0000	1.68141	320.908	-0.00739447	-0.000399103
711.5000	1.92694	321.34	-0.00996481	-0.000385645
711.0000	2.08562	321.72	-0.0129494	-0.000386141
710.5000	2.15694	322.01	-0.015577	-0.00036924
710.0000	1.96335	322.242	-0.0184827	-0.000389619
709.5000	2.44199	322.401	-0.0211181	-0.000398027
709.0000	2.62167	322.52	-0.0233587	-0.000397095
708.5000	2.70377	322.581	-0.0241849	-0.000386671
708.0000	2.84036	322.597	-0.0243968	-0.000391808
707.5000	3.09855	322.56	-0.0240312	-0.000384087
707.0000	3.28523	322.47	-0.0249656	-0.000391494
706.5000	3.26367	322.337	-0.0245303	-0.000393462
706.0000	3.28346	322.159	-0.0255577	-0.000399461
705.5000	3.0605	321.948	-0.0249051	-0.000387689
705.0000	2.95268	321.713	-0.0231624	-0.000390755
704.5000	2.95251	321.466	-0.0223403	-0.000390216
704.0000	3.3186	321.201	-0.0223884	-0.000361821
703.5000	3.28675	320.941	-0.0229998	-0.000364781
703.0000	3.01046	320.687	-0.0221974	-0.000350938
702.5000	2.96983	320.435	-0.0222536	-0.000343733
702.0000	3.01071	320.132	-0.0220608	-0.000333395
701.5000	2.79154	319.838	-0.0214893	-0.0003499
701.0000	2.73648	319.498	-0.022466	-0.000350644
700.5000	2.70589	319.131	-0.0229044	-0.000349072
700.0000	2.55531	318.722	-0.0238521	-0.000326276
699.5000	2.34972	318.253	-0.0239698	-0.000341688
699.0000	2.12496	317.698	-0.0240719	-0.000337547
698.5000	1.81368	317.06	-0.0237512	-0.00032651
698.0000	1.66069	316.373	-0.0222901	-0.000322736
697.5000	1.87491	315.701	-0.0216841	-0.000315852
697.0000	1.68931	315.015	-0.01994	-0.000347
696.5000	1.79355	314.374	-0.0174886	-0.000360016
696.0000	1.62752	313.76	-0.0149356	-0.000365918
695.5000	1.57048	313.244	-0.0124829	-0.000371682
695.0000	1.86172	312.828	-0.0101377	-0.000402966
694.5000	1.43514	312.462	-0.00699226	-0.000416579
694.0000	1.44914	312.159	-0.00467297	-0.000401923
693.5000	1.5942	311.886	-0.00286397	-0.000386826
693.0000	1.50751	311.661	-0.000310823	-0.000370328
692.5000	1.77195	311.462	0.000836999	-0.000354127
692.0000	1.88032	311.302	0.00210852	-0.000382253
691.5000	2.17388	311.184	0.00307104	-0.000376221
691.0000	2.61653	311.134	0.00537138	-0.000379861
690.5000	2.81605	311.203	0.00731706	-0.000386804
690.0000	3.00516	311.4	0.0100945	-0.000356925
689.5000	2.57587	311.697	0.0106592	-0.000368677
689.0000	2.75767	312.066	0.0104747	-0.000331335
688.5000	2.7203	312.471	0.00891061	-0.000315185
688.0000	2.70513	312.866	0.00813998	-0.000301829
687.5000	2.72635	313.243	0.00652728	-0.000292024
687.0000	2.67617	313.56	0.00525588	-0.000274212
686.5000	2.94005	313.83	0.00350355	-0.0003021
686.0000	2.75076	314.085	0.00216198	-0.00029599
685.5000	2.90045	314.344	0.00131699	-0.00031743
685.0000	3.33427	314.6	0.00105018	-0.000315303
684.5000	3.25481	314.869	0.00114558	-0.000318379
684.0000	2.9398	315.158	0.00213828	-0.000350226
683.5000	2.91898	315.467	0.00289313	-0.000320252
683.0000	2.54436	315.795	0.00197874	-0.000316334
682.5000	2.40929	316.059	0.0004199	-0.00035237
682.0000	1.92845	316.254	-0.00197645	-0.000356095
681.5000	2.14478	316.361	-0.00313418	-0.000376145
681.0000	2.0603	316.411	-0.00281968	-0.00039
680.5000	2.53915	316.401	-0.00302139	-0.000390876
680.0000	3.0023	316.367	-0.00259952	-0.000378119
679.5000	3.13948	316.312	-0.00202411	-0.000397796
679.0000	3.01805	316.266	-0.000764978	-0.000411
678.5000	3.08946	316.239	0.000315612	-0.000384262
678.0000	3.12102	316.226	0.000682198	-0.000353928
677.5000	3.39231	316.219	0.000985779	-0.000356984
677.0000	3.08329	316.207	0.00233055	-0.00035606
676.5000	3.11057	316.209	0.00239473	-0.00034685
676.0000	3.50876	316.201	0.00260713	-0.000348286
675.5000	3.47879	316.217	0.00299314	-0.000366041
675.0000	3.61431	316.235	0.00323028	-0.000382359
674.5000	3.48891	316.279	0.00364183	-0.000361678
674.0000	3.88697	316.341	0.00427449	-0.000351619
673.5000	3.84848	316.406	0.00425557	-0.000351118
673.0000	3.97519	316.474	0.0038547	-0.000338168
672.5000	3.73648	316.546	0.00386181	-0.000330069
672.0000	3.55806	316.624	0.00524411	-0.000349084
671.5000	3.46633	316.707	0.0051245	-0.000354741
671.0000	3.33988	316.814	0.00476313	-0.000374015
670.5000	3.41648	316.895	0.00478207	-0.000364171
670.0000	3.34777	316.982	0.0050318	-0.000369809
669.5000	3.76382	317.071	0.00644367	-0.000371789
669.0000	3.78693	317.164	0.00663641	-0.000348748
668.5000	3.9273	317.285	0.00742133	-0.00036846
668.0000	3.6716	317.427	0.00806452	-0.000378029
667.5000	3.79848	317.573	0.00828563	-0.00037414
667.0000	3.64284	317.71	0.00927631	-0.000380635
666.5000	3.62936	317.841	0.00940635	-0.000393715
666.0000	3.54953	317.97	0.00918044	-0.000393238
665.5000	3.67052	318.079	0.0104485	-0.000394627
665.0000	4.22704	318.181	0.0112395	-0.000394912
664.5000	3.86783	318.275	0.0124699	-0.00042536
664.0000	3.91953	318.337	0.0126505	-0.000430737
663.5000	4.00899	318.383	0.012896	-0.000420426
663.0000	4.43366	318.412	0.0136763	-0.000418444
662.5000	4.54666	318.441	0.0135289	-0.000440578
662.0000	4.5779	318.459	0.0135289	-0.000455966
661.5000	4.30459	318.459	0.0135095	-0.000454677
661.0000	4.13823	318.435	0.0141379	-0.000456303
660.5000	4.0594	318.372	0.0138745	-0.000460318
660.0000	4.47286	318.306	0.0129704	-0.000451148
659.5000	4.50983	318.209	0.0131683	-0.000446214
659.0000	5.15166	318.067	0.0136421	-0.000429159
658.5000	5.28936	317.892	0.0142235	-0.000412181
658.0000	5.09295	317.704	0.0152783	-0.000451586
657.5000	4.95098	317.479	0.0151266	-0.000490803
657.0000	4.5554	317.261	0.0153478	-0.000477104
656.5000	4.67216	317.019	0.0150711	-0.000461715
656.0000	4.63029	316.804	0.0157624	-0.000464586
655.5000	4.80504	316.596	0.0168067	-0.00048508
655.0000	4.85518	316.418	0.0178456	-0.000467749
654.5000	4.8271	316.274	0.0191544	-0.000456098
654.0000	4.89422	316.151	0.0205758	-0.000463125
653.5000	4.88423	316.058	0.0219782	-0.00046083
653.0000	5.17738	315.987	0.0230164	-0.000455844
652.5000	5.23328	315.957	0.0239842	-0.000452823
652.0000	5.43658	315.972	0.0240496	-0.000471622
651.5000	5.1179	316.009	0.0248588	-0.000486074
651.0000	4.98332	316.096	0.0249649	-0.000499789
650.5000	4.85614	316.232	0.0250205	-0.000531091
650.0000	5.152	316.382	0.0252098	-0.000534687
649.5000	5.07623	316.57	0.0251062	-0.000528913
649.0000	5.18193	316.763	0.0258562	-0.000550986
648.5000	5.35307	316.98	0.0261873	-0.00058277
648.0000	5.58368	317.193	0.0257135	-0.00059235
647.5000	5.59665	317.396	0.0254401	-0.000589729
647.0000	5.38572	317.596	0.0241321	-0.000565077
646.5000	5.32146	317.751	0.0231559	-0.000568787
646.0000	5.0244	317.868	0.0227748	-0.000571541
645.5000	5.30642	317.955	0.0226652	-0.00058362
645.0000	5.29511	318.024	0.0221892	-0.000595811
644.5000	5.27753	318.07	0.0223354	-0.000627096
644.0000	4.91046	318.064	0.0235143	-0.000619862
643.5000	4.96852	318.048	0.0250335	-0.00060929
643.0000	5.05933	318.005	0.0256985	-0.000600337
642.5000	4.86255	317.946	0.0273147	-0.000583128
642.0000	5.45316	317.882	0.0286293	-0.000565495
641.5000	5.55447	317.811	0.0298676	-0.000556936
641.0000	5.77338	317.716	0.0304956	-0.00054257
640.5000	5.78356	317.63	0.0317167	-0.00054631
640.0000	5.76328	317.535	0.0342747	-0.000544927
639.5000	6.12166	317.432	0.0358642	-0.000563209
639.0000	6.0687	317.327	0.0381069	-0.000562413
638.5000	6.42804	317.243	0.039689	-0.000570741
638.0000	6.84905	317.179	0.0402513	-0.000567104
637.5000	6.88751	317.112	0.0415221	-0.000577602
637.0000	7.1232	317.047	0.0417974	-0.000567192
636.5000	7.25163	316.993	0.0416504	-0.000553322
636.0000	7.60105	316.97	0.0426688	-0.000568802
635.5000	7.66234	316.949	0.0428528	-0.00058277
635.0000	7.89633	316.95	0.0444285	-0.000581103
634.5000	8.07342	316.943	0.0434065	-0.000602378
634.0000	8.4549	316.928	0.0436873	-0.00060417
633.5000	8.2543	316.92	0.0438186	-0.000615361
633.0000	8.28367	316.919	0.044803	-0.000618562
632.5000	8.53263	316.918	0.0465006	-0.000600452
632.0000	8.7704	316.927	0.0463702	-0.000602736
631.5000	9.28188	316.921	0.0471893	-0.000579675
631.0000	9.38348	316.911	0.0474229	-0.000594382
630.5000	9.62319	316.884	0.0488228	-0.000600388
630.0000	9.82885	316.846	0.0495585	-0.0005978
629.5000	9.94175	316.809	0.0501016	-0.000596929
629.0000	10.2596	316.79	0.0514482	-0.000608805
628.5000	10.672	316.775	0.0531827	-0.000599647
628.0000	11.1145	316.745	0.0550858	-0.000624
627.5000	10.9373	316.721	0.05601	-0.000619229
627.0000	11.1606	316.711	0.0571563	-0.000636328
626.5000	11.1065	316.706	0.059279	-0.000643032
626.0000	11.4627	316.73	0.0627929	-0.000648986
625.5000	11.7844	316.769	0.063974	-0.000661971
625.0000	12.2425	316.812	0.0647552	-0.00064122
624.5000	12.4325	316.88	0.066106	-0.00065364
624.0000	12.8208	316.967	0.0680909	-0.000672322
623.5000	13.2886	317.073	0.0697984	-0.00068932
623.0000	13.4475	317.208	0.0710443	-0.000695944
622.5000	13.9604	317.341	0.0728229	-0.000674989
622.0000	13.8864	317.489	0.074738	-0.000712924
621.5000	14.1951	317.66	0.0774474	-0.000711374
621.0000	14.2575	317.844	0.0794819	-0.000739139
620.5000	14.4489	318.024	0.0808692	-0.000735985
620.0000	14.4914	318.232	0.0836592	-0.0007544
619.5000	14.6957	318.506	0.086238	-0.000727995
619.0000	15.4926	318.773	0.0876378	-0.000761364
618.5000	15.801	319.04	0.0883668	-0.00076396
618.0000	16.7102	319.305	0.0889693	-0.000736822
617.5000	17.005	319.574	0.0899215	-0.000729338
617.0000	17.3335	319.857	0.0917919	-0.00076577
616.5000	17.6589	320.12	0.0938167	-0.000776905
616.0000	17.6247	320.361	0.0945689	-0.000792118
615.5000	17.8127	320.604	0.0949318	-0.000799136
615.0000	17.8978	320.837	0.0960786	-0.000794157
614.5000	18.121	321.076	0.096272	-0.000810166
614.0000	18.6387	321.324	0.0958376	-0.000806439
613.5000	19.2429	321.571	0.0974362	-0.000798279
613.0000	19.7836	321.803	0.0980313	-0.000785826
612.5000	20.3902	322.045	0.0987328	-0.000815477
612.0000	20.998	322.286	0.0977821	-0.000824154
611.5000	21.5289	322.499	0.098363	-0.000829339
611.0000	21.9761	322.72	0.10084	-0.000825322
610.5000	22.5703	322.951	0.102659	-0.000813815
610.0000	23.0234	323.161	0.103704	-0.000840213
609.5000	23.5345	323.373	0.105369	-0.000827196
609.0000	23.7503	323.573	0.107954	-0.000818614
608.5000	24.2728	323.782	0.111304	-0.000823394
608.0000	24.8862	323.975	0.112491	-0.000800656
607.5000	25.2704	324.167	0.115175	-0.000789013
607.0000	26.1773	324.377	0.118757	-0.000772591
606.5000	27.0316	324.594	0.123127	-0.000796756
606.0000	27.6272	324.81	0.126485	-0.000790079
605.5000	28.5869	325.025	0.128693	-0.000816643
605.0000	28.9302	325.248	0.13142	-0.000838195
604.5000	29.6338	325.458	0.134134	-0.000827065
604.0000	30.7871	325.665	0.137598	-0.000817885
603.5000	31.3412	325.879	0.140657	-0.000853064
603.0000	32.1506	326.085	0.142922	-0.00085284
602.5000	33.3541	326.302	0.147044	-0.000864069
602.0000	34.203	326.516	0.151057	-0.000889275
601.5000	35.3207	326.74	0.154363	-0.000908715
601.0000	36.3441	326.972	0.157664	-0.000929097
600.5000	37.4952	327.215	0.161663	-0.000935901
600.0000	38.6506	327.439	0.166206	-0.000943369
599.5000	40.3421	327.674	0.170564	-0.000960142
599.0000	41.752	327.917	0.174154	-0.000975398
598.5000	43.0343	328.14	0.177103	-0.00100143
598.0000	44.6861	328.372	0.181424	-0.00101653
597.5000	45.6871	328.624	0.186787	-0.00103904
597.0000	47.4029	328.885	0.19156	-0.00104343
596.5000	49.0829	329.134	0.19734	-0.00105712
596.0000	50.4636	329.386	0.203677	-0.00106994
595.5000	52.3065	329.654	0.209566	-0.00106923
595.0000	53.7885	329.911	0.214511	-0.00108256
594.5000	55.4546	330.221	0.219524	-0.00108454
594.0000	57.237	330.557	0.225422	-0.00107459
593.5000	58.7581	330.884	0.231735	-0.00111574
593.0000	60.8206	331.227	0.237521	-0.00108624
592.5000	62.9987	331.609	0.242905	-0.00111797
592.0000	64.8507	332.024	0.248105	-0.00110579
591.5000	66.8031	332.411	0.25382	-0.00110491
591.0000	68.8688	332.846	0.260453	-0.00111721
590.5000	70.6861	333.312	0.267149	-0.00113165
590.0000	73.0975	333.801	0.273875	-0.00112153
589.5000	75.4249	334.298	0.279988	-0.0011017
589.0000	77.955	334.81	0.286776	-0.00110722
588.5000	80.3756	335.369	0.293789	-0.00107766
588.0000	83.4395	335.965	0.300152	-0.00106419
587.5000	86.0576	336.593	0.307491	-0.00105198
587.0000	88.8608	337.272	0.314786	-0.00104207
586.5000	91.1762	337.91	0.322032	-0.001065
586.0000	93.5894	338.542	0.329365	-0.00106052
585.5000	96.1292	339.188	0.336931	-0.00104735
585.0000	98.6242	339.859	0.345435	-0.00106683
584.5000	100.949	340.501	0.353062	-0.00105147
584.0000	103.043	341.183	0.360716	-0.00107082
583.5000	105.675	341.88	0.367916	-0.00106689
583.0000	108.342	342.611	0.375267	-0.00107863
582.5000	110.854	343.329	0.383177	-0.00107781
582.0000	113.039	344.012	0.390463	-0.00105446
581.5000	115.159	344.728	0.398846	-0.00107688
581.0000	116.961	345.422	0.406338	-0.00106108
580.5000	118.633	346.109	0.413992	-0.00106331
580.0000	120.498	346.756	0.421292	-0.00106157
579.5000	121.614	347.369	0.428539	-0.00105504
579.0000	122.92	347.957	0.434346	-0.00105573
578.5000	123.772	348.516	0.441595	-0.00105242
578.0000	125.017	349.074	0.448305	-0.00104616
577.5000	125.738	349.624	0.45392	-0.00103614
577.0000	126.237	350.099	0.458952	-0.0010339
576.5000	126.75	350.578	0.463441	-0.00102049
576.0000	127.211	351.013	0.468783	-0.00104694
575.5000	127.084	351.389	0.474121	-0.00104506
575.0000	126.996	351.719	0.479098	-0.00100933
574.5000	126.723	352.032	0.483541	-0.000994942
574.0000	126.242	352.304	0.487719	-0.00100386
573.5000	125.572	352.55	0.490327	-0.000984047
573.0000	125.021	352.762	0.493672	-0.000994061
572.5000	124.236	352.909	0.495507	-0.00101017
572.0000	122.69	353.04	0.497213	-0.00102716
571.5000	121.899	353.132	0.498425	-0.00101998
571.0000	120.311	353.176	0.499916	-0.00105415
570.5000	119.248	353.197	0.501038	-0.00104726
570.0000	118.115	353.191	0.502249	-0.00108584
569.5000	116.779	353.142	0.503142	-0.00109037
569.0000	115.443	353.047	0.503123	-0.00108402
568.5000	114.51	352.957	0.504081	-0.00110167
568.0000	113.607	352.807	0.503802	-0.00109262
567.5000	112.147	352.633	0.503777	-0.00109078
567.0000	111.295	352.484	0.502883	-0.00109274
566.5000	110.444	352.279	0.503087	-0.00111693
566.0000	109.646	352.066	0.503551	-0.00113993
565.5000	108.762	351.856	0.503694	-0.00112751
565.0000	108.04	351.627	0.503205	-0.001155
564.5000	107.286	351.409	0.503382	-0.00115814
564.0000	106.682	351.174	0.503239	-0.00115983
563.5000	106.123	350.948	0.504237	-0.00116399
563.0000	105.737	350.738	0.503722	-0.00116635
562.5000	105.514	350.524	0.503277	-0.00116032
562.0000	105.041	350.314	0.504181	-0.00113956
561.5000	104.97	350.105	0.502533	-0.00109782
561.0000	104.844	349.894	0.50273	-0.00111356
560.5000	104.654	349.724	0.503184	-0.00110845
560.0000	104.116	349.592	0.50328	-0.00112123
559.5000	103.921	349.466	0.50365	-0.00110885
559.0000	104.212	349.368	0.503875	-0.00111235
558.5000	104.4	349.298	0.504252	-0.00113247
558.0000	104.632	349.247	0.504528	-0.00112569
557.5000	105.071	349.231	0.505679	-0.0011339
557.0000	105.282	349.227	0.505633	-0.00113663
556.5000	105.683	349.27	0.506396	-0.00114825
556.0000	106.693	349.339	0.507172	-0.00111328
555.5000	107.766	349.456	0.509748	-0.00110236
555.0000	108.607	349.586	0.512278	-0.00110615
554.5000	109.822	349.749	0.51551	-0.00109232
554.0000	111.081	349.961	0.51943	-0.00108008
553.5000	112.535	350.132	0.523223	-0.00110331
553.0000	113.962	350.372	0.526872	-0.00109412
552.5000	115.133	350.638	0.530739	-0.00106391
552.0000	116.374	350.905	0.534512	-0.00104436
551.5000	117.659	351.2	0.540318	-0.00104332
551.0000	118.649	351.56	0.545289	-0.00106567
550.5000	120.144	351.921	0.550788	-0.00104122
550.0000	121.588	352.358	0.556171	-0.00104733
549.5000	123.055	352.782	0.561202	-0.00106456
549.0000	124.727	353.224	0.566075	-0.0010423
548.5000	125.801	353.705	0.572676	-0.00103596
548.0000	127.378	354.215	0.580786	-0.00105281
547.5000	129.166	354.741	0.588102	-0.00106425
547.0000	130.437	355.279	0.595097	-0.00110007
546.5000	131.661	355.822	0.601225	-0.00111345
546.0000	132.354	356.388	0.607963	-0.00113751
545.5000	132.613	356.946	0.614126	-0.00113369
545.0000	133.314	357.515	0.620721	-0.00113019
544.5000	133.987	358.077	0.627596	-0.00116846
544.0000	134.535	358.667	0.633989	-0.00118606
543.5000	135.186	359.239	0.640567	-0.00121106
543.0000	135.985	359.809	0.646728	-0.00124271
542.5000	136.163	360.357	0.653821	-0.00127116
542.0000	136.168	360.885	0.658379	-0.00126634
541.5000	135.987	361.407	0.663061	-0.00127841
541.0000	135.547	361.913	0.667903	-0.00129601
540.5000	134.871	362.421	0.674211	-0.0012966
540.0000	134.374	362.871	0.679537	-0.00131989
539.5000	132.964	363.291	0.683066	-0.00135575
539.0000	131.181	363.705	0.687995	-0.00137283
538.5000	129.681	364.105	0.692774	-0.00136338
538.0000	128.196	364.425	0.696897	-0.00136859
537.5000	126.545	364.733	0.700745	-0.00143011
537.0000	124.974	365.005	0.704518	-0.00148421
536.5000	123.15	365.229	0.706943	-0.00151928
536.0000	121.254	365.427	0.711143	-0.00152179
535.5000	119.354	365.59	0.713789	-0.00155422
535.0000	116.359	365.713	0.7168	-0.00154076
534.5000	113.843	365.766	0.719179	-0.00158042
534.0000	111.597	365.823	0.722287	-0.0016338
533.5000	108.849	365.845	0.725709	-0.00167864
533.0000	106.19	365.82	0.728048	-0.00172552
532.5000	103.798	365.78	0.729631	-0.00178287
532.0000	101.028	365.696	0.731074	-0.00181816
531.5000	98.6164	365.612	0.732254	-0.00181605
531.0000	95.5651	365.477	0.732439	-0.00184683
530.5000	92.8291	365.307	0.732406	-0.00189567
530.0000	90.3295	365.113	0.732921	-0.00195731
529.5000	87.4245	364.918	0.733058	-0.00197616
529.0000	85.0027	364.689	0.733346	-0.00197808
528.5000	82.8181	364.471	0.733537	-0.0019795
528.0000	80.2916	364.242	0.733353	-0.00199137
527.5000	77.7101	363.983	0.733043	-0.00204496
527.0000	75.0512	363.695	0.732188	-0.00207271
526.5000	72.6732	363.409	0.731949	-0.0021245
526.0000	70.5057	363.114	0.730722	-0.00211435
525.5000	68.0899	362.799	0.72935	-0.00209546
525.0000	65.809	362.516	0.728397	-0.00209792
524.5000	64.23	362.242	0.727895	-0.00209694
524.0000	62.3119	361.989	0.727057	-0.0021083
523.5000	60.6371	361.732	0.725537	-0.00209903
523.0000	59.067	361.468	0.725654	-0.00212545
522.5000	57.2308	361.243	0.72468	-0.00213925
522.0000	55.8611	361.029	0.723112	-0.00214855
521.5000	54.0346	360.833	0.721386	-0.00214135
521.0000	52.43	360.637	0.721036	-0.00215948
520.5000	50.8441	360.472	0.719882	-0.00215694
520.0000	49.472	360.297	0.718791	-0.0021718
519.5000	48.0717	360.129	0.718304	-0.00217386
519.0000	46.7457	359.979	0.718153	-0.00219416
518.5000	45.6051	359.858	0.717964	-0.00217393
518.0000	44.2316	359.773	0.717971	-0.00214973
517.5000	42.9519	359.72	0.719141	-0.00217376
517.0000	41.305	359.685	0.718844	-0.00223147
516.5000	39.8183	359.65	0.719587	-0.00225748
516.0000	38.2245	359.623	0.719538	-0.00227415
515.5000	36.6899	359.632	0.720751	-0.00227901
515.0000	35.303	359.639	0.722454	-0.00229027
514.5000	33.4649	359.671	0.72368	-0.00227908
514.0000	32.0291	359.677	0.725847	-0.00231809
513.5000	29.9688	359.697	0.727963	-0.0023319
513.0000	28.1085	359.72	0.729749	-0.00233751
512.5000	26.1478	359.759	0.730541	-0.00236668
512.0000	23.9893	359.793	0.732449	-0.00238399
511.5000	21.9039	359.832	0.733752	-0.00240142
511.0000	19.966	359.841	0.733522	-0.0024339
510.5000	17.8595	359.826	0.734039	-0.00245995
510.0000	15.3574	359.759	0.734672	-0.002493
509.5000	12.5388	359.656	0.735913	-0.00252119
509.0000	9.79279	359.5	0.737191	-0.00254962
508.5000	7.37541	359.333	0.738174	-0.00254347
508.0000	4.58913	359.155	0.739019	-0.00256631
507.5000	1.96175	358.97	0.739075	-0.00261083
507.0000	-0.965078	358.769	0.737903	-0.00266341
506.5000	-3.27019	358.533	0.73638	-0.00267189
506.0000	-5.62987	358.299	0.734068	-0.00269455
505.5000	-8.10197	358	0.732367	-0.00271059
505.0000	-10.4847	357.676	0.73117	-0.00276038
504.5000	-13.6818	357.289	0.729327	-0.00280158
504.0000	-16.0196	356.848	0.727549	-0.00282915
503.5000	-18.735	356.376	0.724711	-0.00287924
503.0000	-21.2294	355.81	0.72145	-0.00289225
502.5000	-23.7077	355.278	0.718327	-0.00291702
502.0000	-26.3653	354.697	0.71424	-0.00294986
501.5000	-28.4474	354.09	0.710025	-0.00297597
501.0000	-30.5752	353.405	0.705248	-0.00300111
500.5000	-32.9283	352.643	0.699529	-0.00300188
500.0000	-35.1803	351.758	0.693111	-0.00305839
499.5000	-37.3781	350.725	0.686567	-0.00306975
499.0000	-39.5037	349.475	0.680694	-0.00308276
498.5000	-41.3431	348.132	0.675746	-0.003082
498.0000	-43.3057	346.731	0.669425	-0.00309368
497.5000	-44.8006	345.265	0.663103	-0.00309988
497.0000	-46.3628	344.015	0.657037	-0.00308166
496.5000	-47.4044	342.907	0.65071	-0.00308321
496.0000	-48.4642	341.947	0.644023	-0.00308372
495.5000	-49.6379	340.98	0.63632	-0.00306564
495.0000	-50.6227	340.062	0.628501	-0.00304492
494.5000	-51.5793	339.162	0.620696	-0.003025
494.0000	-52.1731	338.313	0.614	-0.00301038
493.5000	-52.8242	337.433	0.607251	-0.00297889
493.0000	-52.9343	336.634	0.60081	-0.00294539
492.5000	-53.1582	335.813	0.593091	-0.002911
492.0000	-53.4744	334.95	0.585777	-0.0028865
491.5000	-53.54	334.187	0.578684	-0.00285729
491.0000	-53.79	333.502	0.57056	-0.00281278
490.5000	-53.8261	332.886	0.563768	-0.00280875
490.0000	-54.0478	332.312	0.556946	-0.00279452
489.5000	-53.8342	331.715	0.550228	-0.00274838
489.0000	-53.872	330.893	0.543789	-0.00272701
488.5000	-53.8957	329.916	0.537681	-0.00270904
488.0000	-53.9038	328.804	0.530735	-0.00266831
487.5000	-53.8545	327.621	0.524747	-0.00262289
487.0000	-53.6862	326.444	0.518987	-0.00261175
486.5000	-53.5208	325.261	0.514012	-0.00257225
486.0000	-53.4151	324.288	0.509779	-0.00254571
485.5000	-53.0228	323.48	0.504248	-0.00251208
485.0000	-52.7768	322.737	0.498534	-0.00250081
484.5000	-52.9678	322.093	0.493756	-0.0024795
484.0000	-52.7732	321.474	0.488939	-0.00244068
483.5000	-52.5727	320.949	0.484268	-0.00242502
483.0000	-52.5123	320.455	0.479134	-0.00236795
482.5000	-52.2392	320.051	0.474718	-0.00234403
482.0000	-52.2578	319.679	0.469532	-0.00231395
481.5000	-51.9188	319.334	0.464394	-0.00228405
481.0000	-51.6696	319.026	0.459755	-0.00225666
480.5000	-51.7356	318.729	0.454721	-0.0022542
480.0000	-51.3338	318.284	0.448725	-0.00223002
479.5000	-51.3789	317.536	0.443604	-0.00218156
479.0000	-51.162	316.614	0.439707	-0.00216726
478.5000	-50.939	315.885	0.436084	-0.00213043
478.0000	-50.5983	315.345	0.43171	-0.00212633
477.5000	-50.4506	314.887	0.427238	-0.00210974
477.0000	-50.3635	314.24	0.422807	-0.00208458
476.5000	-50.1563	313.257	0.417888	-0.00206238
476.0000	-49.6658	312.102	0.4122	-0.00202268
475.5000	-49.6585	310.806	0.406558	-0.00198709
475.0000	-49.5687	309.366	0.401771	-0.00196192
474.5000	-49.3365	307.835	0.395939	-0.00194731
474.0000	-49.1207	306.142	0.391999	-0.00190107
473.5000	-48.7351	304.28	0.388403	-0.0018742
473.0000	-48.3114	302.556	0.385689	-0.0018492
472.5000	-47.8962	301.175	0.383475	-0.00181688
472.0000	-47.4799	300.283	0.379146	-0.00178525
471.5000	-46.8883	299.792	0.375522	-0.00175401
471.0000	-46.6541	299.68	0.370894	-0.00173649
470.5000	-46.4852	299.615	0.365697	-0.00170769
470.0000	-46.0715	299.301	0.361056	-0.00167892
469.5000	-45.6408	298.604	0.356046	-0.00165318
469.0000	-45.3506	297.667	0.35149	-0.00161642
468.5000	-44.9349	296.787	0.347772	-0.00158405
468.0000	-44.3096	296.131	0.3442	-0.00153912
467.5000	-43.8484	295.76	0.341135	-0.00150615
467.0000	-43.077	295.635	0.33701	-0.00148678
466.5000	-42.4581	295.72	0.33315	-0.00146583
466.0000	-41.666	296.042	0.329358	-0.00143734
465.5000	-41.1782	296.586	0.323246	-0.00140376
465.0000	-40.5688	297.2	0.314756	-0.00138707
464.5000	-39.8729	297.468	0.304517	-0.00135334
464.0000	-39.1877	297.297	0.296706	-0.00131869
463.5000	-38.7653	296.922	0.292196	-0.0012908
463.0000	-38.1421	296.528	0.288479	-0.00125524
462.5000	-37.5498	296.192	0.284681	-0.00122209
462.0000	-37.2673	295.981	0.280978	-0.00119543
461.5000	-36.741	295.933	0.276418	-0.00115214
461.0000	-35.9716	296.024	0.272006	-0.00112749
460.5000	-34.9628	296.204	0.266427	-0.00107673
460.0000	-34.4371	296.337	0.260547	-0.0010564
459.5000	-33.6649	296.373	0.255827	-0.00103748
459.0000	-33.1407	296.244	0.25049	-0.00100504
458.5000	-32.5396	295.906	0.246416	-0.000970404
458.0000	-32.1998	295.385	0.242546	-0.000965026
457.5000	-31.6088	294.871	0.239515	-0.000928847
457.0000	-30.9487	294.455	0.236438	-0.000880594
456.5000	-30.3534	293.997	0.234376	-0.000844313
456.0000	-29.7605	293.366	0.23182	-0.000818088
455.5000	-29.0288	292.637	0.230003	-0.000787022
455.0000	-28.3373	292.16	0.226563	-0.000757992
454.5000	-27.6456	291.927	0.222143	-0.000728051
454.0000	-26.8012	291.742	0.2174	-0.000695126
453.5000	-26.2512	291.526	0.213307	-0.000673049
453.0000	-25.5627	291.291	0.210896	-0.000651457
452.5000	-25.1821	291.043	0.207489	-0.000646774
452.0000	-24.771	290.774	0.204364	-0.000637612
451.5000	-24.0903	290.487	0.201445	-0.000615787
451.0000	-23.5994	290.2	0.198793	-0.0006058
450.5000	-23.0292	289.98	0.195853	-0.000587556
450.0000	-22.4155	289.933	0.193386	-0.000561968
449.5000	-21.6246	289.978	0.190372	-0.000527754
449.0000	-21.1627	289.916	0.187716	-0.000500261
448.5000	-20.669	289.758	0.184555	-0.000489779
448.0000	-20.193	289.79	0.182312	-0.000468235
447.5000	-20.0335	290.052	0.178947	-0.000454447
447.0000	-19.8508	290.282	0.174322	-0.000443447
446.5000	-19.3534	290.242	0.17167	-0.000429102
446.0000	-19.1536	289.98	0.169035	-0.000422267
445.5000	-18.6695	289.637	0.166785	-0.000403218
445.0000	-18.1248	289.242	0.164439	-0.00036981
444.5000	-17.7373	288.807	0.161196	-0.000359131
444.0000	-17.4089	288.384	0.159259	-0.000339776
443.5000	-17.0742	287.953	0.156855	-0.000315448
443.0000	-16.7945	287.631	0.154858	-0.000292822
442.5000	-16.3644	287.339	0.152464	-0.000265089
442.0000	-15.8983	287.089	0.15062	-0.000246695
441.5000	-15.5363	286.822	0.148379	-0.000232177
441.0000	-15.349	286.581	0.146603	-0.000213618
440.5000	-15.0389	286.352	0.14441	-0.000222121
440.0000	-14.7264	286.127	0.140518	-0.000220512
439.5000	-14.4498	285.886	0.136898	-0.000195261
439.0000	-13.7314	285.646	0.134422	-0.000180998
438.5000	-13.1679	285.393	0.132262	-0.00015184
438.0000	-12.7117	285.146	0.129085	-0.000123533
437.5000	-12.1761	284.929	0.126018	-0.000100728
437.0000	-11.8602	284.733	0.124083	-7.93602E-005
436.5000	-11.5955	284.591	0.122013	-6.05282E-005
436.0000	-11.3823	284.488	0.120507	-4.75275E-005
435.5000	-10.9621	284.402	0.118662	-2.6946E-005
435.0000	-10.5198	284.273	0.115931	-7.31358E-006
434.5000	-10.2182	284.11	0.113682	-1.92774E-006
434.0000	-10.0245	283.922	0.111783	1.06138E-005
433.5000	-9.84064	283.739	0.10915	1.72716E-005
433.0000	-9.71753	283.534	0.107156	1.56234E-005
432.5000	-9.54142	283.331	0.105614	2.79404E-005
432.0000	-9.30064	283.11	0.106243	4.63736E-005
431.5000	-8.82276	282.902	0.10584	6.42346E-005
431.0000	-8.59989	282.697	0.104641	7.73361E-005
430.5000	-8.25009	282.497	0.103158	8.50333E-005
430.0000	-7.9261	282.308	0.101932	0.000103016
429.5000	-7.69826	282.077	0.101119	0.000101037
429.0000	-7.4536	281.86	0.100115	0.000104781
428.5000	-7.17933	281.654	0.0984386	0.000112136
428.0000	-6.99355	281.45	0.0967463	0.000130041
427.5000	-6.85401	281.25	0.0951592	0.000150179
427.0000	-6.63098	281.055	0.0939981	0.000154743
426.5000	-6.53304	280.834	0.0929655	0.000155347
426.0000	-6.21791	280.57	0.0911467	0.000168343
425.5000	-5.88865	280.276	0.090222	0.000186671
425.0000	-5.46689	279.966	0.0903955	0.000206815
424.5000	-5.17209	279.666	0.0902485	0.000233102
424.0000	-4.71965	279.445	0.0893305	0.000259425
423.5000	-4.46393	279.283	0.0886693	0.000269434
423.0000	-4.2912	279.125	0.0877058	0.000277423
422.5000	-4.269	278.999	0.087212	0.00028497
422.0000	-3.98373	278.878	0.0857277	0.000274735
421.5000	-3.92548	278.763	0.0851735	0.000282698
421.0000	-3.64531	278.656	0.084866	0.00029099
420.5000	-3.48852	278.542	0.0832578	0.000307819
420.0000	-3.16957	278.424	0.0832238	0.000318281
419.5000	-3.02872	278.293	0.0833988	0.000316987
419.0000	-2.83285	278.179	0.0826461	0.00031216
418.5000	-2.5924	278.079	0.0821446	0.000308308
418.0000	-2.41713	278.003	0.0819448	0.000310416
417.5000	-2.44665	277.948	0.0815008	0.000304725
417.0000	-2.48991	277.942	0.08076	0.000293959
416.5000	-2.56182	277.982	0.0798312	0.000291707
416.0000	-2.45924	277.977	0.0791167	0.00029039
415.5000	-2.36294	277.918	0.0788655	0.000278037
415.0000	-2.17893	277.831	0.0781815	0.000276809
414.5000	-2.00928	277.728	0.0783731	0.000285098
414.0000	-2.04966	277.618	0.078223	0.000309593
413.5000	-1.8904	277.518	0.0785141	0.000318582
413.0000	-2.02727	277.445	0.0791841	0.000319791
412.5000	-2.10825	277.414	0.0803928	0.000322913
412.0000	-2.03757	277.381	0.0810175	0.000315188
411.5000	-1.85817	277.347	0.0807899	0.000327343
411.0000	-1.6846	277.32	0.0801917	0.000324445
410.5000	-1.4946	277.315	0.0797321	0.00032597
410.0000	-1.42404	277.33	0.0793548	0.000336612
409.5000	-1.25264	277.358	0.0795101	0.000340098
409.0000	-1.16018	277.401	0.079655	0.000351444
408.5000	-1.08307	277.437	0.0795501	0.000355063
408.0000	-0.781466	277.448	0.0797537	0.000370684
407.5000	-0.581801	277.462	0.079982	0.000376237
407.0000	-0.190187	277.467	0.0799063	0.00038243
406.5000	-0.407941	277.473	0.0798939	0.000384194
406.0000	-0.249456	277.47	0.0799469	0.000385096
405.5000	-0.291776	277.443	0.0806805	0.000375798
405.0000	-0.169216	277.387	0.0811282	0.00036946
404.5000	-0.0195975	277.301	0.0810789	0.000366797
404.0000	0.181934	277.183	0.0809666	0.00036889
403.5000	0.0792246	277.034	0.0809598	0.000351331
403.0000	0.035473	276.885	0.0808252	0.000350576
402.5000	-0.0996252	276.735	0.0822723	0.000335286
402.0000	-0.0982065	276.595	0.083164	0.000349538
401.5000	-0.298126	276.433	0.0837543	0.000345496
401.0000	-0.276301	276.312	0.0849432	0.000344006
400.5000	-0.299533	276.207	0.0857624	0.000345607
400.0000	-0.221823	276.149	0.0864339	0.000352796
399.5000	0.0102887	276.109	0.0868796	0.000358727
399.0000	-0.0899834	276.081	0.0878464	0.000335536
398.5000	-0.199338	276.074	0.0888077	0.00034475
398.0000	-0.0669637	276.09	0.0899971	0.000333418
397.5000	0.0750603	276.137	0.0912028	0.000339554
397.0000	0.28035	276.219	0.0915247	0.000349972
396.5000	0.313532	276.334	0.0918189	0.000330313
396.0000	0.328765	276.465	0.0924897	0.000322693
395.5000	0.715834	276.622	0.0930314	0.00033145
395.0000	0.754007	276.82	0.0940432	0.000343451
394.5000	1.00731	277.046	0.0954181	0.000353225
394.0000	1.21711	277.286	0.0964584	0.000361696
393.5000	1.14164	277.532	0.0975172	0.000351175
393.0000	1.21592	277.794	0.0985385	0.000350809
392.5000	1.29288	278.016	0.0992528	0.000341643
392.0000	1.25676	278.225	0.100006	0.000346752
391.5000	1.05652	278.405	0.100428	0.000333567
391.0000	1.02602	278.563	0.101145	0.000336444
390.5000	1.24555	278.725	0.101392	0.000336666
390.0000	1.16848	278.88	0.10221	0.00032157
389.5000	1.1491	279.023	0.102969	0.000332215
389.0000	1.05812	279.149	0.103731	0.000324236
388.5000	1.16463	279.259	0.104344	0.00031099
388.0000	1.15669	279.367	0.104921	0.000321687
387.5000	1.24525	279.473	0.106424	0.000310642
387.0000	1.30461	279.567	0.107955	0.000308394
386.5000	1.3544	279.658	0.109185	0.000292919
386.0000	1.34631	279.721	0.109638	0.000283943
385.5000	1.47844	279.792	0.11065	0.000285601
385.0000	1.46813	279.86	0.111668	0.000282167
384.5000	1.33217	279.92	0.112511	0.000278521
384.0000	1.4389	279.982	0.112993	0.000296788
383.5000	1.48765	280.039	0.114792	0.000292309
383.0000	1.57183	280.108	0.116355	0.000290175
382.5000	1.56119	280.183	0.118025	0.000285493
382.0000	1.54844	280.249	0.119853	0.000281732
381.5000	1.67532	280.317	0.121266	0.000274744
381.0000	1.87138	280.392	0.123142	0.000253788
380.5000	1.99852	280.463	0.123673	0.000264929
380.0000	2.13614	280.559	0.125499	0.000260092
379.5000	2.13515	280.643	0.126805	0.000252842
379.0000	2.19358	280.73	0.127792	0.00025769
378.5000	2.19303	280.812	0.128574	0.000261925
378.0000	2.01992	280.894	0.129441	0.000254429
377.5000	2.09732	280.984	0.130109	0.000260486
377.0000	2.06723	281.045	0.13112	0.000252866
376.5000	2.37412	281.113	0.132096	0.000242532
376.0000	2.29321	281.168	0.133567	0.000229783
375.5000	2.32315	281.221	0.135448	0.000211125
375.0000	2.47792	281.273	0.135659	0.000192871
374.5000	2.43446	281.316	0.136124	0.000174464
374.0000	2.59617	281.354	0.13639	0.000183715
373.5000	2.68457	281.394	0.137558	0.000183214
373.0000	2.58245	281.435	0.137721	0.000178862
372.5000	2.51414	281.469	0.137862	0.00017511
372.0000	2.54855	281.516	0.138924	0.000163621
371.5000	2.38661	281.554	0.139221	0.000156857
371.0000	2.1502	281.615	0.140266	0.000149026
370.5000	2.18655	281.687	0.141387	0.000143734
370.0000	2.24561	281.751	0.141948	0.000144234
369.5000	2.41922	281.815	0.142667	0.000140476
369.0000	2.39121	281.896	0.143951	0.000136806
368.5000	2.42403	281.995	0.145185	0.000135455
368.0000	2.51069	282.099	0.146291	0.000136506
367.5000	2.72706	282.219	0.147553	0.00012585
367.0000	3.03559	282.338	0.148437	0.000121525
366.5000	3.04064	282.46	0.149615	0.0001226
366.0000	3.17838	282.594	0.151205	0.000116417
365.5000	3.26505	282.721	0.151937	0.000101088
365.0000	3.51958	282.853	0.152958	9.75296E-005
364.5000	3.69399	282.992	0.153878	9.911E-005
364.0000	3.79777	283.127	0.154056	9.31884E-005
363.5000	4.01839	283.275	0.15448	9.76118E-005
363.0000	4.15751	283.41	0.155301	0.000100397
362.5000	4.18944	283.546	0.156227	0.000102291
362.0000	4.19319	283.68	0.157628	0.000100587
361.5000	4.43237	283.828	0.158887	0.000102211
361.0000	4.57876	283.972	0.160275	9.49812E-005
360.5000	4.70858	284.117	0.161355	7.48799E-005
360.0000	4.84651	284.262	0.163323	8.58217E-005
359.5000	4.88063	284.403	0.164367	7.22471E-005
359.0000	4.97126	284.529	0.1651	5.92165E-005
358.5000	4.98568	284.678	0.166153	5.12305E-005
358.0000	4.98341	284.825	0.167272	4.3042E-005
357.5000	5.02616	284.978	0.168996	2.68219E-005
357.0000	4.88241	285.144	0.170306	2.75987E-005
356.5000	5.02595	285.281	0.171587	2.12983E-005
356.0000	5.05448	285.423	0.173483	2.68242E-006
355.5000	5.2529	285.563	0.175933	1.00219E-005
355.0000	5.2437	285.703	0.178415	5.36807E-006
354.5000	5.51189	285.852	0.179902	-4.46939E-006
354.0000	5.37389	286.008	0.181724	-1.87209E-005
353.5000	5.3967	286.161	0.182916	-4.27491E-005
353.0000	5.51825	286.306	0.18444	-5.74597E-005
352.5000	5.78671	286.468	0.186013	-7.56359E-005
352.0000	5.90647	286.625	0.187688	-8.64265E-005
351.5000	5.97083	286.783	0.188743	-9.02181E-005
351.0000	6.01932	286.93	0.190215	-7.46648E-005
350.5000	6.1487	287.079	0.191739	-8.19199E-005
350.0000	6.24276	287.24	0.192804	-8.11385E-005
349.5000	6.4891	287.407	0.194032	-8.97823E-005
349.0000	6.85131	287.576	0.194823	-9.14418E-005
348.5000	7.05625	287.747	0.196603	-0.000108562
348.0000	7.13413	287.91	0.198163	-0.000103877
347.5000	7.3425	288.066	0.199642	-9.85099E-005
347.0000	7.38486	288.24	0.201096	-0.000112967
346.5000	7.36958	288.405	0.202781	-0.000127734
346.0000	7.58409	288.569	0.204217	-0.000131968
345.5000	7.99908	288.739	0.205444	-0.000142677
345.0000	8.22051	288.926	0.20729	-0.000134594
344.5000	8.18334	289.087	0.208793	-0.000143071
344.0000	8.36992	289.253	0.209575	-0.00013944
343.5000	8.43079	289.419	0.210578	-0.000160051
343.0000	8.62812	289.58	0.212126	-0.000173885
342.5000	8.82856	289.753	0.213367	-0.000185179
342.0000	9.25525	289.934	0.214716	-0.000167778
341.5000	9.43563	290.107	0.216813	-0.000187535
341.0000	9.42355	290.267	0.218746	-0.000200477
340.5000	9.32202	290.432	0.220462	-0.000200285
340.0000	9.52124	290.597	0.222081	-0.000200322
339.5000	9.76054	290.779	0.223781	-0.000203109
339.0000	10.005	290.964	0.225752	-0.000196523
338.5000	10.1905	291.144	0.227095	-0.00020323
338.0000	10.6208	291.322	0.228391	-0.000205877
337.5000	10.7764	291.517	0.22994	-0.000221557
337.0000	10.921	291.7	0.230507	-0.000225505
336.5000	11.16	291.882	0.232226	-0.000236492
336.0000	11.4984	292.091	0.234251	-0.00022746
335.5000	11.7285	292.281	0.235557	-0.000224333
335.0000	11.7711	292.483	0.23732	-0.000223468
334.5000	11.9622	292.707	0.238876	-0.000244459
334.0000	12.0679	292.919	0.241203	-0.000251023
333.5000	12.1583	293.14	0.243746	-0.000259064
333.0000	12.4721	293.361	0.245673	-0.000260706
332.5000	12.9045	293.587	0.247728	-0.000273934
332.0000	13.25	293.811	0.249701	-0.000286425
331.5000	13.6586	294.045	0.25179	-0.000309975
331.0000	13.6105	294.302	0.254046	-0.000327406
330.5000	13.9415	294.544	0.256247	-0.000344998
330.0000	14.2165	294.788	0.25853	-0.000340014
329.5000	14.3536	295.047	0.261071	-0.000340231
329.0000	14.6691	295.299	0.264099	-0.000335858
328.5000	15.0049	295.537	0.267567	-0.00034309
328.0000	15.3687	295.758	0.269648	-0.000363453
327.5000	15.5255	295.977	0.272121	-0.000386559
327.0000	15.6674	296.196	0.275321	-0.000406393
326.5000	16.3321	296.451	0.278803	-0.000425768
326.0000	16.5836	296.71	0.281646	-0.000421394
325.5000	16.8325	296.97	0.284124	-0.000440535
325.0000	17.1725	297.233	0.286658	-0.000428342
324.5000	17.4566	297.515	0.289054	-0.000436071
324.0000	17.7342	297.797	0.291648	-0.000437756
323.5000	18.0442	298.09	0.294628	-0.000430504
323.0000	18.2084	298.368	0.297413	-0.000427424
322.5000	18.7927	298.645	0.299861	-0.000411809
322.0000	18.8336	298.93	0.302882	-0.000437838
321.5000	19.2592	299.22	0.305525	-0.000456767
321.0000	19.722	299.519	0.308175	-0.000458682
320.5000	19.9107	299.813	0.310549	-0.000459484
320.0000	20.1861	300.102	0.312851	-0.00045274
319.5000	20.3923	300.411	0.315613	-0.000445632
319.0000	20.7131	300.741	0.318318	-0.00045681
318.5000	20.9797	301.092	0.320982	-0.000446708
318.0000	21.3302	301.402	0.323542	-0.000429808
317.5000	21.6947	301.69	0.326351	-0.000450574
317.0000	22.1321	301.999	0.329337	-0.000450644
316.5000	22.4999	302.305	0.33248	-0.000460475
316.0000	22.5886	302.632	0.335872	-0.000456378
315.5000	23.072	302.958	0.338884	-0.000440499
315.0000	23.4737	303.322	0.341738	-0.000444866
314.5000	23.7725	303.686	0.344573	-0.000454797
314.0000	24.2074	304.046	0.347947	-0.000476154
313.5000	24.9176	304.442	0.351571	-0.000455583
313.0000	25.0658	304.85	0.355258	-0.000472051
312.5000	25.4838	305.256	0.358862	-0.000489387
312.0000	25.8744	305.686	0.362808	-0.000484435
311.5000	26.4481	306.123	0.366554	-0.000463395
311.0000	27.2375	306.572	0.370339	-0.000460083
310.5000	27.7566	307.064	0.374826	-0.000473978
310.0000	28.1319	307.527	0.37892	-0.000471794
309.5000	28.3742	308.008	0.38323	-0.000452249
309.0000	28.7543	308.556	0.387867	-0.000450632
308.5000	29.1438	309.11	0.391952	-0.000453836
308.0000	29.499	309.621	0.396391	-0.0004556
307.5000	29.8545	310.202	0.401751	-0.000471955
307.0000	30.0245	310.739	0.406547	-0.000476053
306.5000	30.4587	311.326	0.412377	-0.000479835
306.0000	30.7171	311.884	0.417496	-0.000471998
305.5000	30.9234	312.487	0.422729	-0.000460309
305.0000	31.0391	313.062	0.427722	-0.000460563
304.5000	31.4577	313.689	0.433575	-0.000469075
304.0000	31.6656	314.319	0.439657	-0.000475588
303.5000	31.7989	314.911	0.444829	-0.000486131
303.0000	31.6645	315.553	0.450462	-0.000513759
302.5000	31.7436	316.201	0.456378	-0.00050704
302.0000	31.2966	316.842	0.462439	-0.000487529
301.5000	31.2858	317.489	0.468768	-0.000477645
301.0000	31.0892	318.123	0.474584	-0.000486112
300.5000	31.0145	318.68	0.479243	-0.000485026
300.0000	30.9634	319.327	0.48518	-0.000470344

##### Extended Information
[Comments]
Sample name	10% S-JS after 30 hrs
Comment
User
Division
Company	Labo systeme complexes hors equilibre

[Detailed Information]
Creation date	11/21/2025 6:48 PM

Data array type	Linear data array * 4
Horizontal axis	Wavelength [nm]
Vertical axis(1)	CD [mdeg]
Vertical axis(2)	HT [V]
Vertical axis(3)	Abs
Vertical axis(4)	LD [dOD]
Start	800 nm
End	300 nm
Data interval	0.5 nm
Data points	1001    

[Measurement Information]
Instrument name	CD Jasco
Model name	J-1500
Serial No.	A005261638

Detector	PM-539
Detector S/N	A0052PM539
  Lock-in amp.	X mode
  HT volt	Auto

Detector	EXPML-535
Detector S/N	A0001
  Lock-in amp.	X mode
  HT volt	Auto

Measurement date	11/21/2025 6:47 PM

Overload detect	1
Photometric mode	CD, HT, Abs, LD
Measure range	800 - 300 nm
Data pitch	0.5 nm
CD scale	200 mdeg/1.0 dOD
FL scale	200 mdeg/1.0 dOD
D.I.T.	1 sec
Bandwidth	1.00 nm
Start mode	Immediately
Scanning speed	500 nm/min
Baseline correction	Baseline
Shutter control	Auto


