TITLE	10% S-JS before DT
DATA TYPE	
ORIGIN	JASCO
OWNER	
DATE	25/11/20
TIME	10:31:39
SPECTROMETER/DATA SYSTEM	
LOCALE	1033
RESOLUTION	
DELTAX	-0.5
XUNITS	NANOMETERS
YUNITS	CD [mdeg]
Y2UNITS	LD [dOD]
Y3UNITS	ABSORBANCE
Y4UNITS	HT [V]
FIRSTX	  700.0000
LASTX	  300.0000
NPOINTS	     801
FIRSTY	     1.99058
MAXY	    21.40855
MINY	     0.11568
XYDATA
700.0000	1.99058	-0.00016915	-0.00635374	323.672
699.5000	1.87106	-0.000178976	-0.00699914	323.212
699.0000	1.66389	-0.000196197	-0.00854569	322.637
698.5000	1.9174	-0.000176855	-0.00971932	321.987
698.0000	1.89429	-0.000192926	-0.00886784	321.315
697.5000	1.81465	-0.00020554	-0.00735921	320.647
697.0000	1.6569	-0.000222803	-0.00645234	319.926
696.5000	1.89191	-0.000214406	-0.00592888	319.255
696.0000	1.41017	-0.000224519	-0.00378262	318.576
695.5000	1.47868	-0.000207478	-0.000646571	317.977
695.0000	1.3532	-0.000212864	0.00457333	317.51
694.5000	1.11575	-0.000195164	0.00717779	317.104
694.0000	0.913781	-0.000171824	0.0101984	316.741
693.5000	0.69937	-0.000150879	0.012241	316.427
693.0000	0.81957	-0.000149092	0.0146014	316.164
692.5000	1.13033	-0.000139853	0.0160286	315.923
692.0000	1.4627	-0.000129511	0.0182937	315.716
691.5000	1.35543	-0.000134171	0.0208181	315.553
691.0000	1.48259	-0.000115623	0.0240614	315.431
690.5000	1.78186	-0.000110973	0.0269901	315.407
690.0000	1.61487	-0.000102211	0.0284864	315.47
689.5000	1.53415	-8.10564E-005	0.0297229	315.642
689.0000	1.57965	-8.16315E-005	0.0299467	315.929
688.5000	1.53748	-9.20293E-005	0.0304788	316.284
688.0000	1.90182	-8.79539E-005	0.0299225	316.678
687.5000	1.96995	-9.04824E-005	0.0281095	317.054
687.0000	2.04511	-0.000102875	0.0269416	317.375
686.5000	2.15942	-9.77039E-005	0.025349	317.664
686.0000	2.49484	-9.76463E-005	0.0233505	317.915
685.5000	2.08487	-0.000102123	0.0224472	318.177
685.0000	2.0447	-8.57576E-005	0.0225029	318.437
684.5000	2.47246	-0.000108672	0.0227824	318.684
684.0000	1.93796	-0.000128449	0.0223467	318.947
683.5000	1.60416	-0.000131004	0.0215485	319.246
683.0000	1.33642	-0.00012121	0.0199601	319.558
682.5000	1.05226	-0.000120202	0.0190631	319.851
682.0000	0.928818	-0.000127713	0.0182692	320.125
681.5000	1.51338	-0.000128092	0.0167439	320.29
681.0000	1.8411	-0.000151252	0.0160508	320.395
680.5000	2.13613	-0.000151957	0.0138788	320.396
680.0000	2.27453	-0.000144639	0.0128668	320.358
679.5000	2.06791	-0.000127612	0.0112108	320.287
679.0000	1.9165	-0.000124948	0.0108146	320.217
678.5000	1.82588	-0.000141199	0.0114474	320.154
678.0000	1.97262	-0.000139216	0.0122593	320.108
677.5000	1.95211	-0.00016014	0.0127436	320.06
677.0000	2.27132	-0.000171768	0.0137551	320.011
676.5000	2.30829	-0.000159366	0.0137075	319.964
676.0000	2.37488	-0.000159652	0.0145325	319.931
675.5000	2.50404	-0.000159399	0.0153744	319.897
675.0000	2.71228	-0.000138369	0.0170855	319.894
674.5000	2.94243	-0.000128469	0.015981	319.895
674.0000	3.15348	-0.000135388	0.015981	319.911
673.5000	3.26403	-0.000121278	0.0159431	319.933
673.0000	2.64285	-0.000104055	0.0157717	319.972
672.5000	2.40009	-0.000110904	0.0166843	320.02
672.0000	2.07014	-0.000105644	0.0185609	320.08
671.5000	2.03288	-0.000117789	0.0196233	320.14
671.0000	2.21038	-0.00010823	0.0192885	320.211
670.5000	2.47674	-0.000108249	0.0184165	320.286
670.0000	2.35887	-8.16736E-005	0.0182767	320.345
669.5000	2.18386	-0.000107499	0.0175783	320.412
669.0000	1.99439	-0.000115233	0.0172068	320.487
668.5000	1.79562	-0.000110367	0.0173173	320.585
668.0000	1.51967	-0.000121684	0.0179606	320.716
667.5000	1.45488	-0.000140137	0.0175018	320.843
667.0000	1.20906	-0.000157498	0.0157873	320.954
666.5000	1.15584	-0.000178631	0.0161735	321.065
666.0000	0.980559	-0.000171287	0.0160139	321.165
665.5000	0.768324	-0.000195225	0.0170583	321.269
665.0000	0.792621	-0.000208519	0.0174722	321.364
664.5000	0.681958	-0.000232773	0.0178074	321.432
664.0000	0.910123	-0.00022229	0.016461	321.488
663.5000	1.03347	-0.000223484	0.0147413	321.536
663.0000	1.43793	-0.000242265	0.0144553	321.565
662.5000	1.36944	-0.000233777	0.0148052	321.583
662.0000	1.24294	-0.000239097	0.0161447	321.588
661.5000	1.33085	-0.000227771	0.0167425	321.581
661.0000	1.36358	-0.000233334	0.0174101	321.561
660.5000	1.402	-0.000223528	0.0150511	321.491
660.0000	1.64313	-0.000191026	0.014145	321.425
659.5000	2.03276	-0.000163307	0.0134862	321.321
659.0000	1.94394	-0.000158213	0.0149167	321.2
658.5000	2.02041	-0.000197159	0.0151651	321.034
658.0000	2.21668	-0.000209969	0.0146572	320.837
657.5000	2.0945	-0.000240234	0.0136646	320.607
657.0000	2.34111	-0.000227817	0.0129894	320.367
656.5000	2.47704	-0.000200711	0.0130502	320.098
656.0000	2.18024	-0.000202052	0.0137766	319.852
655.5000	2.12831	-0.000236502	0.0161017	319.603
655.0000	2.05179	-0.000239697	0.0184913	319.375
654.5000	2.07984	-0.000202709	0.0205393	319.171
654.0000	2.02077	-0.00022756	0.0212632	318.981
653.5000	2.30944	-0.000232311	0.0218504	318.821
653.0000	2.38489	-0.000217917	0.0222312	318.692
652.5000	2.52942	-0.000190609	0.0231788	318.607
652.0000	2.66262	-0.000214206	0.025765	318.561
651.5000	2.44784	-0.000231863	0.027727	318.548
651.0000	2.35424	-0.000234381	0.0287733	318.557
650.5000	2.58936	-0.000205491	0.0291227	318.626
650.0000	2.62855	-0.000180603	0.028879	318.727
649.5000	2.59481	-0.000179917	0.028707	318.855
649.0000	2.72247	-0.000153069	0.030202	319.017
648.5000	2.63432	-0.000178379	0.0304285	319.208
648.0000	2.89428	-0.000192336	0.0308351	319.398
647.5000	3.16026	-0.000177775	0.0296353	319.577
647.0000	3.11385	-0.000175137	0.0284733	319.753
646.5000	2.75212	-0.0001971	0.0264201	319.9
646.0000	2.80997	-0.000212862	0.0255875	320.021
645.5000	3.23685	-0.000234112	0.0246834	320.113
645.0000	3.39207	-0.000246991	0.0234096	320.17
644.5000	3.39151	-0.000272601	0.022146	320.202
644.0000	3.26928	-0.00027906	0.0211544	320.19
643.5000	3.2402	-0.000297527	0.019932	320.159
643.0000	3.42142	-0.000298223	0.0205198	320.106
642.5000	3.45009	-0.000328281	0.02122	320.024
642.0000	2.97657	-0.000371823	0.0224618	319.943
641.5000	2.93109	-0.000347165	0.0229572	319.852
641.0000	3.24927	-0.00035303	0.0243835	319.751
640.5000	3.17251	-0.000371383	0.0253495	319.642
640.0000	3.20543	-0.000368969	0.0254987	319.53
639.5000	2.87129	-0.000359546	0.0271221	319.394
639.0000	2.84915	-0.00035662	0.0291071	319.279
638.5000	3.30221	-0.00031865	0.0317652	319.169
638.0000	3.10272	-0.000321832	0.0332784	319.069
637.5000	2.86341	-0.000319341	0.0336525	318.958
637.0000	2.99248	-0.000290051	0.0354004	318.859
636.5000	2.90673	-0.000276713	0.0380194	318.763
636.0000	2.63657	-0.000321478	0.0399742	318.696
635.5000	2.45316	-0.000312999	0.0411302	318.639
635.0000	2.482	-0.000308983	0.0426998	318.589
634.5000	2.20828	-0.00028986	0.0435882	318.544
634.0000	2.46673	-0.000274845	0.0441448	318.489
633.5000	2.51797	-0.000297942	0.0447038	318.434
633.0000	2.83494	-0.000298373	0.0442616	318.368
632.5000	2.59326	-0.000272945	0.0434749	318.303
632.0000	2.6799	-0.000276424	0.0431423	318.264
631.5000	3.00228	-0.000251595	0.044045	318.203
631.0000	2.96592	-0.000269279	0.0445581	318.153
630.5000	3.13131	-0.000264296	0.0448491	318.07
630.0000	3.16351	-0.000277817	0.0450024	317.993
629.5000	3.45403	-0.000288965	0.0449372	317.912
629.0000	3.15023	-0.000288777	0.0467005	317.853
628.5000	2.9966	-0.000309	0.0472293	317.796
628.0000	3.12101	-0.000312042	0.0480851	317.745
627.5000	3.26302	-0.000312452	0.0491485	317.683
627.0000	3.72623	-0.000301454	0.0503313	317.614
626.5000	3.85666	-0.000281707	0.0519397	317.569
626.0000	3.9551	-0.000308943	0.052057	317.541
625.5000	3.86974	-0.00032472	0.0535926	317.529
625.0000	3.68865	-0.00031965	0.0563404	317.546
624.5000	3.93242	-0.000331952	0.0585324	317.57
624.0000	3.86325	-0.000336226	0.0593302	317.6
623.5000	4.10051	-0.000328783	0.0608915	317.641
623.0000	3.93958	-0.000331764	0.0615078	317.698
622.5000	3.71507	-0.000346404	0.0627727	317.783
622.0000	3.7643	-0.000333923	0.0629909	317.879
621.5000	3.76758	-0.000327323	0.0641179	318.005
621.0000	3.55015	-0.000330516	0.0658106	318.137
620.5000	3.61167	-0.000342375	0.0666007	318.259
620.0000	3.47475	-0.000340925	0.0665809	318.411
619.5000	3.39523	-0.000333844	0.0660904	318.593
619.0000	3.47957	-0.000343128	0.0673442	318.809
618.5000	2.93071	-0.000365465	0.068421	319.042
618.0000	2.83177	-0.00041075	0.0685671	319.256
617.5000	2.7883	-0.000404474	0.0676923	319.472
617.0000	2.68739	-0.000443423	0.0674446	319.683
616.5000	2.74773	-0.000445065	0.0668099	319.897
616.0000	2.83941	-0.000435859	0.0680034	320.106
615.5000	2.76171	-0.000445266	0.0693342	320.315
615.0000	2.93381	-0.000453702	0.0699363	320.528
614.5000	3.37301	-0.000460372	0.0710116	320.725
614.0000	3.34903	-0.000471535	0.0719119	320.913
613.5000	3.24136	-0.00049205	0.071824	321.105
613.0000	3.67857	-0.00050883	0.0721528	321.306
612.5000	3.71834	-0.000505921	0.0728862	321.508
612.0000	4.07766	-0.000534827	0.0755272	321.705
611.5000	4.14	-0.000559261	0.0771013	321.878
611.0000	4.58069	-0.000562582	0.077578	322.053
610.5000	4.77145	-0.000572231	0.0780192	322.219
610.0000	4.93668	-0.000546489	0.0789783	322.368
609.5000	5.25003	-0.000536258	0.082245	322.539
609.0000	5.19138	-0.000533743	0.0850712	322.704
608.5000	5.245	-0.000540172	0.087555	322.861
608.0000	5.2963	-0.000555925	0.0886344	323.012
607.5000	5.28608	-0.000593411	0.0901437	323.155
607.0000	5.48126	-0.00060701	0.0902629	323.316
606.5000	5.16763	-0.000643824	0.091038	323.485
606.0000	5.19388	-0.000655882	0.0928558	323.665
605.5000	5.30608	-0.000652859	0.0949272	323.853
605.0000	5.40492	-0.000674904	0.0978608	324.022
604.5000	5.51053	-0.000702465	0.100155	324.187
604.0000	5.7228	-0.000724076	0.101921	324.344
603.5000	5.85839	-0.000725776	0.103386	324.497
603.0000	5.61663	-0.000741383	0.104485	324.665
602.5000	5.41227	-0.000776922	0.107637	324.856
602.0000	5.57137	-0.000791856	0.109909	325.02
601.5000	5.50233	-0.000857831	0.113553	325.198
601.0000	5.45775	-0.000888385	0.115372	325.372
600.5000	5.9547	-0.000910341	0.11775	325.56
600.0000	6.06782	-0.000959859	0.121197	325.73
599.5000	6.01629	-0.000991517	0.126157	325.914
599.0000	5.96096	-0.00102584	0.130664	326.086
598.5000	5.84366	-0.00108369	0.134979	326.257
598.0000	5.90902	-0.00111619	0.139321	326.429
597.5000	6.14156	-0.00115922	0.143755	326.606
597.0000	5.72962	-0.00120641	0.147708	326.811
596.5000	6.00241	-0.00122381	0.151638	327.002
596.0000	5.84059	-0.00126382	0.15609	327.221
595.5000	5.795	-0.00126852	0.160904	327.466
595.0000	6.25816	-0.00132592	0.167323	327.682
594.5000	6.45314	-0.00137872	0.172259	327.939
594.0000	6.56489	-0.00142172	0.178189	328.252
593.5000	6.49867	-0.00146887	0.18363	328.548
593.0000	6.46947	-0.00152143	0.190144	328.889
592.5000	6.4845	-0.00159295	0.196866	329.284
592.0000	6.7695	-0.00162784	0.202671	329.709
591.5000	6.95038	-0.00168594	0.208289	330.123
591.0000	6.99362	-0.00174117	0.215465	330.561
590.5000	7.31709	-0.00180127	0.222638	331.058
590.0000	7.1706	-0.00184973	0.230302	331.598
589.5000	7.26764	-0.00192701	0.236119	332.163
589.0000	7.49814	-0.00199591	0.244655	332.767
588.5000	7.42939	-0.00203451	0.253761	333.433
588.0000	7.83567	-0.00214846	0.263256	334.146
587.5000	8.15913	-0.00226663	0.271621	334.9
587.0000	8.16178	-0.00233149	0.281423	335.736
586.5000	8.523	-0.00239097	0.291997	336.543
586.0000	8.5753	-0.00245674	0.30105	337.368
585.5000	8.84391	-0.00252083	0.310075	338.224
585.0000	9.23808	-0.00263394	0.319515	339.111
584.5000	9.10144	-0.00270786	0.328816	339.971
584.0000	9.25187	-0.00279081	0.338574	340.914
583.5000	9.1618	-0.00287029	0.347263	341.881
583.0000	8.97858	-0.00296188	0.358906	342.931
582.5000	9.33662	-0.00303319	0.369797	344.024
582.0000	9.47075	-0.00311655	0.380225	345.071
581.5000	9.55088	-0.00321236	0.391908	346.167
581.0000	9.65281	-0.00329025	0.404005	347.257
580.5000	9.73147	-0.00342271	0.414593	348.329
580.0000	9.71573	-0.003512	0.424583	349.386
579.5000	9.9553	-0.00359685	0.434559	350.422
579.0000	9.8546	-0.00366819	0.445064	351.426
578.5000	9.69117	-0.00374371	0.455006	352.415
578.0000	9.52292	-0.00385115	0.464402	353.396
577.5000	9.74144	-0.00393588	0.473627	354.382
577.0000	9.55961	-0.00399559	0.483403	355.296
576.5000	9.6	-0.00405153	0.49452	356.241
576.0000	9.65977	-0.00412646	0.504371	357.08
575.5000	9.74152	-0.00416307	0.514421	357.888
575.0000	10.1314	-0.00423771	0.52163	358.591
574.5000	10.4655	-0.00427076	0.528553	359.293
574.0000	10.6756	-0.00431775	0.536775	359.928
573.5000	10.6788	-0.00436931	0.543284	360.52
573.0000	10.9199	-0.00442165	0.549808	361.093
572.5000	10.8932	-0.00447126	0.555822	361.554
572.0000	11.2148	-0.00444934	0.562867	362.02
571.5000	11.1078	-0.00446971	0.568529	362.407
571.0000	11.16	-0.0044772	0.574539	362.751
570.5000	11.493	-0.00451951	0.578172	363.038
570.0000	11.8262	-0.00452018	0.581887	363.297
569.5000	12.2242	-0.00450171	0.585403	363.489
569.0000	12.34	-0.00449374	0.588774	363.611
568.5000	13.0306	-0.00446777	0.589884	363.706
568.0000	13.3799	-0.00448371	0.590313	363.713
567.5000	13.8799	-0.0044605	0.591471	363.697
567.0000	13.9566	-0.00443576	0.592513	363.681
566.5000	13.6198	-0.00441539	0.593325	363.599
566.0000	13.3255	-0.00437613	0.593114	363.491
565.5000	13.7307	-0.00434753	0.59406	363.369
565.0000	13.9933	-0.00430271	0.593656	363.187
564.5000	14.2435	-0.0042478	0.593473	363.008
564.0000	14.456	-0.00424178	0.592997	362.828
563.5000	14.51	-0.0042667	0.592945	362.621
563.0000	14.6941	-0.00422024	0.593568	362.442
562.5000	14.5999	-0.00421653	0.59348	362.247
562.0000	14.7046	-0.00416469	0.594499	362.047
561.5000	14.934	-0.00414549	0.594711	361.83
561.0000	15.1028	-0.00408787	0.595504	361.638
560.5000	14.7919	-0.00409678	0.59627	361.462
560.0000	14.4622	-0.00412719	0.597486	361.344
559.5000	14.462	-0.00410718	0.599041	361.218
559.0000	14.9519	-0.00409717	0.59948	361.12
558.5000	15.1139	-0.00410863	0.600678	361.037
558.0000	15.1741	-0.00412053	0.6023	360.984
557.5000	15.2618	-0.00414771	0.602928	360.971
557.0000	14.9589	-0.00416977	0.604663	361.003
556.5000	14.4737	-0.00420355	0.606812	361.085
556.0000	14.4025	-0.0041772	0.610293	361.197
555.5000	13.8646	-0.00420648	0.613828	361.37
555.0000	13.8222	-0.00421455	0.616183	361.569
554.5000	13.6243	-0.00425842	0.618402	361.802
554.0000	13.1438	-0.00430841	0.622485	362.092
553.5000	12.6934	-0.00434642	0.62683	362.37
553.0000	12.2926	-0.00440318	0.631186	362.719
552.5000	12.2584	-0.00446816	0.635512	363.126
552.0000	12.6274	-0.00450983	0.640555	363.573
551.5000	12.2737	-0.00452182	0.646635	364.059
551.0000	11.8213	-0.00462477	0.65329	364.634
550.5000	11.5797	-0.00467906	0.659946	365.235
550.0000	11.472	-0.00474269	0.668069	365.956
549.5000	11.532	-0.00478199	0.676677	366.662
549.0000	11.5352	-0.00485028	0.686142	367.419
548.5000	11.632	-0.00490722	0.695	368.262
548.0000	11.6266	-0.00499088	0.70496	369.176
547.5000	11.9944	-0.0050682	0.714928	370.106
547.0000	12.1956	-0.00514842	0.725129	371.122
546.5000	12.5395	-0.00519841	0.736179	372.17
546.0000	12.2957	-0.00525764	0.746431	373.275
545.5000	11.873	-0.00535579	0.756367	374.406
545.0000	12.0937	-0.00547656	0.767308	375.542
544.5000	12.4596	-0.00556147	0.779554	376.74
544.0000	12.7079	-0.00563073	0.791613	377.988
543.5000	12.5281	-0.00574108	0.803942	379.249
543.0000	12.9125	-0.00578041	0.816089	380.532
542.5000	13.0621	-0.00585639	0.828807	381.826
542.0000	13.2696	-0.00594154	0.841144	383.104
541.5000	13.7372	-0.00604141	0.853808	384.429
541.0000	13.6926	-0.00617754	0.865218	385.724
540.5000	14.0498	-0.0062728	0.878296	387.05
540.0000	14.2765	-0.00637696	0.889791	388.321
539.5000	14.2915	-0.006447	0.901015	389.547
539.0000	14.0843	-0.00654131	0.91295	390.803
538.5000	13.7453	-0.00662911	0.926434	392.029
538.0000	13.9372	-0.00668323	0.937081	393.124
537.5000	14.5352	-0.00677215	0.950035	394.214
537.0000	14.7276	-0.00686819	0.961247	395.259
536.5000	14.457	-0.00691598	0.97069	396.179
536.0000	14.6041	-0.00694683	0.97956	397.078
535.5000	14.9553	-0.00698194	0.988456	397.87
535.0000	14.9376	-0.00704572	0.996971	398.606
534.5000	15.3347	-0.00711662	1.00399	399.217
534.0000	15.3401	-0.00721576	1.01005	399.794
533.5000	15.0282	-0.00722649	1.01683	400.305
533.0000	15.2257	-0.00719312	1.02147	400.711
532.5000	15.4431	-0.00717113	1.02557	401.069
532.0000	15.3692	-0.00718178	1.02993	401.39
531.5000	15.772	-0.00718097	1.03406	401.638
531.0000	16.5327	-0.00717816	1.03777	401.794
530.5000	16.6675	-0.00718591	1.04048	401.871
530.0000	16.984	-0.00717724	1.04204	401.892
529.5000	17.365	-0.00713546	1.04273	401.875
529.0000	18.3659	-0.00709258	1.04286	401.796
528.5000	18.1483	-0.00709969	1.04262	401.679
528.0000	18.4615	-0.00709334	1.04271	401.56
527.5000	17.9709	-0.00711629	1.04377	401.373
527.0000	17.9907	-0.00708979	1.0432	401.141
526.5000	17.8041	-0.00702379	1.04288	400.889
526.0000	17.4728	-0.00695791	1.04268	400.613
525.5000	17.8837	-0.00689834	1.04211	400.321
525.0000	18.5699	-0.00688959	1.04169	400.015
524.5000	19.0146	-0.00687562	1.0414	399.708
524.0000	19.228	-0.00685868	1.04113	399.424
523.5000	19.2806	-0.00685801	1.04073	399.137
523.0000	19.0843	-0.00680126	1.03971	398.855
522.5000	19.2036	-0.00679267	1.03939	398.619
522.0000	19.0036	-0.006791	1.03792	398.401
521.5000	18.9476	-0.00682408	1.03677	398.202
521.0000	18.7857	-0.00685489	1.03654	397.993
520.5000	18.4028	-0.00688496	1.03788	397.835
520.0000	18.2105	-0.00684679	1.03959	397.702
519.5000	18.0245	-0.00680522	1.0394	397.572
519.0000	18.4845	-0.00676597	1.03943	397.467
518.5000	18.2099	-0.00683765	1.04029	397.417
518.0000	18.5823	-0.00687735	1.0412	397.413
517.5000	18.842	-0.00690023	1.04356	397.462
517.0000	18.7469	-0.0069198	1.04539	397.537
516.5000	18.1601	-0.00687423	1.04866	397.652
516.0000	17.3408	-0.00689809	1.05136	397.802
515.5000	17.1782	-0.00694257	1.0536	397.985
515.0000	17.1132	-0.00699115	1.05624	398.157
514.5000	17.4464	-0.00703285	1.05767	398.37
514.0000	17.6542	-0.00704539	1.05989	398.559
513.5000	17.9697	-0.00701931	1.06411	398.778
513.0000	18.4749	-0.00696745	1.06893	399.029
512.5000	18.7676	-0.00694862	1.0712	399.317
512.0000	19.7949	-0.00693853	1.07366	399.569
511.5000	20.635	-0.00694781	1.07693	399.802
511.0000	20.27	-0.00697789	1.08047	400.009
510.5000	20.8587	-0.00695445	1.08295	400.193
510.0000	20.7839	-0.0069571	1.0849	400.334
509.5000	20.42	-0.00695612	1.08756	400.423
509.0000	20.7047	-0.00694222	1.08976	400.454
508.5000	21.0274	-0.00694583	1.09142	400.431
508.0000	21.1187	-0.00693687	1.09298	400.371
507.5000	21.2375	-0.00694322	1.09319	400.271
507.0000	21.4085	-0.00690048	1.09371	400.144
506.5000	21.0578	-0.00684844	1.09465	399.976
506.0000	20.9447	-0.00683585	1.09435	399.771
505.5000	20.692	-0.00684079	1.09345	399.48
505.0000	20.5778	-0.00681661	1.09163	399.121
504.5000	20.1441	-0.00682311	1.0905	398.646
504.0000	19.8508	-0.0068151	1.08737	398.093
503.5000	19.5527	-0.00678663	1.08387	397.47
503.0000	19.0783	-0.00674937	1.0791	396.752
502.5000	19.2663	-0.00672657	1.07548	396.034
502.0000	19.4562	-0.00667436	1.06869	395.209
501.5000	19.3204	-0.00666622	1.06288	394.335
501.0000	19.4357	-0.00661255	1.05592	393.333
500.5000	19.1327	-0.00656797	1.04758	392.235
500.0000	19.2718	-0.00650466	1.03867	391.01
499.5000	19.1933	-0.00646428	1.02896	389.607
499.0000	19.2524	-0.00641736	1.01935	387.912
498.5000	19.4515	-0.00632622	1.00924	386.107
498.0000	18.901	-0.00630064	0.99808	384.176
497.5000	18.6397	-0.00625132	0.986889	382.079
497.0000	18.6535	-0.00621685	0.977226	380.194
496.5000	18.266	-0.00614954	0.967449	378.429
496.0000	17.9905	-0.00608128	0.956764	376.907
495.5000	17.7397	-0.00600592	0.945455	375.376
495.0000	17.0112	-0.00597628	0.934748	373.896
494.5000	16.7002	-0.00589644	0.922999	372.415
494.0000	16.2927	-0.00583626	0.912265	371.021
493.5000	15.469	-0.00579034	0.901515	369.583
493.0000	15.3277	-0.00570789	0.890709	368.269
492.5000	14.6977	-0.00566427	0.880127	366.916
492.0000	14.3755	-0.00561741	0.867162	365.471
491.5000	14.0953	-0.00554682	0.856593	364.155
491.0000	13.6159	-0.00546728	0.844159	362.915
490.5000	12.879	-0.00541347	0.832882	361.781
490.0000	12.2016	-0.00536201	0.822302	360.716
489.5000	11.6484	-0.00529436	0.813037	359.727
489.0000	11.2733	-0.00517781	0.801261	358.515
488.5000	11.0174	-0.00509379	0.790033	357.14
488.0000	10.6748	-0.00507886	0.779715	355.57
487.5000	10.2434	-0.00500097	0.769854	353.939
487.0000	10.1343	-0.00497083	0.759667	352.345
486.5000	9.98428	-0.00490482	0.750153	350.663
486.0000	9.95206	-0.00482964	0.741853	349.199
485.5000	9.94802	-0.00476837	0.733803	347.916
485.0000	9.80679	-0.00471287	0.725511	346.728
484.5000	9.38111	-0.00467312	0.717615	345.651
484.0000	9.1886	-0.00458007	0.710784	344.605
483.5000	9.0175	-0.0045029	0.703583	343.691
483.0000	8.81042	-0.00444608	0.695711	342.801
482.5000	8.86475	-0.00442088	0.688654	342.059
482.0000	8.68733	-0.00436131	0.681565	341.364
481.5000	8.97038	-0.00428329	0.673653	340.666
481.0000	8.89652	-0.00426838	0.666791	340.046
480.5000	8.64893	-0.00426491	0.659601	339.471
480.0000	8.26747	-0.00423265	0.651536	338.806
479.5000	8.34473	-0.00415895	0.643427	337.904
479.0000	8.104	-0.00410423	0.635569	336.709
478.5000	7.70092	-0.00403736	0.629938	335.63
478.0000	7.53415	-0.00400683	0.624362	334.726
477.5000	7.26525	-0.0039677	0.618445	334.039
477.0000	6.77782	-0.00393631	0.611506	333.212
476.5000	6.72585	-0.00389687	0.603213	331.973
476.0000	6.66135	-0.00383816	0.593576	330.567
475.5000	6.59719	-0.0038164	0.584082	328.977
475.0000	6.412	-0.0038074	0.575825	327.246
474.5000	6.23728	-0.00377686	0.568852	325.448
474.0000	5.90379	-0.00371943	0.560881	323.476
473.5000	5.62389	-0.00366126	0.554657	321.274
473.0000	5.4632	-0.00360843	0.549187	319.132
472.5000	5.32254	-0.00353045	0.544631	317.239
472.0000	5.2815	-0.00345911	0.539645	315.899
471.5000	5.02956	-0.00341856	0.533554	314.945
471.0000	4.87392	-0.00337864	0.528436	314.507
470.5000	4.74734	-0.00334302	0.522139	314.225
470.0000	4.62481	-0.00329904	0.515059	313.812
469.5000	4.43859	-0.0032467	0.507524	313.004
469.0000	4.59506	-0.00318134	0.499322	311.802
468.5000	4.56613	-0.00311699	0.492038	310.583
468.0000	4.58473	-0.00305866	0.487015	309.549
467.5000	4.33646	-0.00299822	0.482242	308.838
467.0000	4.10303	-0.00293984	0.477762	308.401
466.5000	3.75811	-0.00288382	0.471929	308.185
466.0000	3.61086	-0.00281825	0.465451	308.202
465.5000	3.40841	-0.0027706	0.459228	308.484
465.0000	3.22116	-0.00273461	0.449254	308.905
464.5000	3.20148	-0.00268091	0.439009	309.086
464.0000	2.91012	-0.0026345	0.429587	308.808
463.5000	2.82015	-0.00258228	0.421851	308.24
463.0000	2.70988	-0.0025207	0.415261	307.597
462.5000	2.63045	-0.00248472	0.408638	306.993
462.0000	2.45866	-0.0024384	0.402	306.478
461.5000	2.31913	-0.00240242	0.395459	306.144
461.0000	2.1164	-0.002364	0.389118	305.983
460.5000	1.89739	-0.0023154	0.382065	305.929
460.0000	1.81358	-0.00228201	0.374216	305.882
459.5000	1.64443	-0.00223374	0.36714	305.763
459.0000	1.73973	-0.00219365	0.360046	305.495
458.5000	1.80922	-0.00213319	0.351995	305.042
458.0000	1.84891	-0.00209971	0.345524	304.383
457.5000	1.7721	-0.00206484	0.340341	303.635
457.0000	1.64984	-0.00203301	0.335356	302.956
456.5000	1.66808	-0.00198099	0.3297	302.32
456.0000	1.55399	-0.00195758	0.323253	301.531
455.5000	1.47206	-0.00193002	0.317259	300.578
455.0000	1.42554	-0.00189081	0.312376	299.816
454.5000	1.49937	-0.00185163	0.307581	299.337
454.0000	1.42942	-0.00181113	0.301666	298.966
453.5000	1.41713	-0.00174793	0.295189	298.576
453.0000	1.32318	-0.00172397	0.289455	298.171
452.5000	1.41563	-0.00168424	0.284545	297.756
452.0000	1.33975	-0.00168346	0.279531	297.32
451.5000	1.54026	-0.00162168	0.274132	296.851
451.0000	1.42448	-0.00159299	0.26873	296.396
450.5000	1.3662	-0.0015747	0.263389	295.969
450.0000	1.4123	-0.00154582	0.259014	295.697
449.5000	1.44988	-0.00152339	0.25393	295.574
449.0000	1.42883	-0.00146873	0.247772	295.41
448.5000	1.56799	-0.00142648	0.241759	295.122
448.0000	1.46592	-0.00140832	0.237831	294.921
447.5000	1.55876	-0.001368	0.234261	294.983
447.0000	1.30087	-0.00135047	0.229348	295.117
446.5000	1.22091	-0.00131241	0.223929	295.043
446.0000	1.33379	-0.00125963	0.219276	294.688
445.5000	1.39372	-0.00123834	0.214602	294.221
445.0000	1.48244	-0.00121773	0.21029	293.698
444.5000	1.35919	-0.00119753	0.206385	293.12
444.0000	1.4468	-0.00114545	0.203002	292.558
443.5000	1.19577	-0.00110121	0.19885	291.971
443.0000	1.15252	-0.0010731	0.19507	291.515
442.5000	1.28707	-0.00106072	0.19166	291.082
442.0000	1.28821	-0.00102099	0.188385	290.709
441.5000	1.24585	-0.00100342	0.184984	290.317
441.0000	1.17183	-0.000974399	0.182635	289.95
440.5000	1.05549	-0.000975865	0.181033	289.603
440.0000	1.02777	-0.000944922	0.1785	289.239
439.5000	0.929066	-0.000908513	0.174659	288.88
439.0000	0.961913	-0.000874109	0.170508	288.506
438.5000	1.25551	-0.00084272	0.165849	288.113
438.0000	1.10059	-0.000822864	0.161981	287.732
437.5000	1.03584	-0.000795095	0.158107	287.371
437.0000	1.15089	-0.000784473	0.154815	287.024
436.5000	1.18034	-0.000777469	0.152171	286.766
436.0000	1.07227	-0.000756746	0.149373	286.554
435.5000	1.0191	-0.000740386	0.145746	286.35
435.0000	0.918409	-0.000735556	0.142771	286.107
434.5000	0.870108	-0.0007005	0.139687	285.83
434.0000	0.878121	-0.000681457	0.136596	285.538
433.5000	0.900443	-0.000652551	0.13362	285.253
433.0000	0.990029	-0.000613246	0.130622	284.944
432.5000	1.06437	-0.000572612	0.12741	284.642
432.0000	1.12474	-0.000567459	0.124631	284.333
431.5000	0.974217	-0.000557363	0.122109	284.01
431.0000	0.929837	-0.000550241	0.11949	283.686
430.5000	0.677147	-0.000532316	0.117494	283.374
430.0000	0.515647	-0.000531709	0.115305	283.092
429.5000	0.556465	-0.000516	0.112748	282.776
429.0000	0.706909	-0.000497943	0.110382	282.459
428.5000	0.727984	-0.000466995	0.108165	282.132
428.0000	0.65497	-0.000431299	0.105617	281.806
427.5000	0.805874	-0.000412311	0.103782	281.524
427.0000	0.628893	-0.000400615	0.101737	281.236
426.5000	0.671733	-0.000371449	0.099424	280.937
426.0000	0.652869	-0.00035296	0.0965755	280.607
425.5000	0.667028	-0.000340376	0.0945476	280.23
425.0000	0.562944	-0.000338316	0.0919178	279.813
424.5000	0.528706	-0.000325179	0.0906053	279.415
424.0000	0.51669	-0.000316683	0.0893975	279.098
423.5000	0.59605	-0.000286996	0.0880839	278.843
423.0000	0.760271	-0.000269832	0.0867363	278.621
422.5000	0.852585	-0.000262512	0.0848299	278.419
422.0000	0.949327	-0.000248494	0.0832251	278.208
421.5000	1.0749	-0.000218579	0.0802562	277.997
421.0000	1.14469	-0.000206851	0.0786078	277.818
420.5000	1.12928	-0.000197648	0.0775515	277.643
420.0000	0.928196	-0.00019481	0.0753449	277.465
419.5000	0.827933	-0.000205966	0.0737211	277.247
419.0000	0.870417	-0.000185769	0.0721373	277.049
418.5000	1.14062	-0.000180202	0.0702637	276.873
418.0000	1.01894	-0.000174475	0.0694769	276.714
417.5000	1.10623	-0.000160425	0.0693446	276.581
417.0000	1.12341	-0.00016237	0.0692199	276.499
416.5000	1.05432	-0.000159111	0.0684552	276.466
416.0000	1.16021	-0.000142427	0.0669891	276.399
415.5000	1.21813	-0.000151	0.0652198	276.265
415.0000	1.10213	-0.000138546	0.0638611	276.113
414.5000	1.04052	-0.000126004	0.0631913	275.931
414.0000	0.872205	-0.000114687	0.0624419	275.774
413.5000	0.877871	-0.000103416	0.0619088	275.598
413.0000	0.786301	-9.75109E-005	0.0626779	275.469
412.5000	0.847263	-0.000100773	0.0620626	275.352
412.0000	0.774426	-9.16515E-005	0.0612757	275.248
411.5000	0.970002	-7.46508E-005	0.0607237	275.157
411.0000	0.745001	-5.20116E-005	0.0597729	275.081
410.5000	0.669167	-4.18063E-005	0.0596325	275.016
410.0000	0.425996	-4.2529E-005	0.0593324	274.97
409.5000	0.593559	-3.80121E-005	0.0581618	274.942
409.0000	0.314296	-4.36993E-005	0.0565122	274.917
408.5000	0.257297	-1.71211E-005	0.0544331	274.892
408.0000	0.246284	-5.12564E-006	0.0539414	274.859
407.5000	0.288744	-9.14896E-007	0.0531294	274.824
407.0000	0.229417	1.16029E-005	0.0525005	274.77
406.5000	0.268416	2.36205E-005	0.0522831	274.719
406.0000	0.356094	3.35981E-005	0.0518672	274.673
405.5000	0.492196	2.75114E-005	0.0518436	274.588
405.0000	0.569304	3.83921E-005	0.0521666	274.479
404.5000	0.745269	4.71712E-005	0.051878	274.341
404.0000	0.54793	5.39793E-005	0.0501819	274.176
403.5000	0.465257	7.06567E-005	0.0493946	273.983
403.0000	0.596373	6.83553E-005	0.0493956	273.783
402.5000	0.652803	6.3165E-005	0.0488021	273.563
402.0000	0.816204	7.51243E-005	0.048866	273.366
401.5000	0.722462	8.0823E-005	0.0498491	273.152
401.0000	0.711862	0.000100553	0.0512404	272.968
400.5000	0.851003	0.000107894	0.053454	272.811
400.0000	0.790869	9.87641E-005	0.0540018	272.691
399.5000	0.789269	0.000116739	0.0538729	272.588
399.0000	0.743032	0.000117505	0.0540303	272.523
398.5000	0.732188	0.000112292	0.0550501	272.462
398.0000	0.527967	9.48809E-005	0.0554113	272.419
397.5000	0.472532	0.000114825	0.0549127	272.406
397.0000	0.506015	0.000132517	0.0543372	272.426
396.5000	0.580673	0.000139503	0.0544192	272.489
396.0000	0.521854	0.000135913	0.0555521	272.574
395.5000	0.642272	0.000139874	0.0568622	272.674
395.0000	0.62805	0.000159351	0.0573434	272.819
394.5000	0.599231	0.000174543	0.0577459	272.988
394.0000	0.519492	0.000160915	0.0586665	273.189
393.5000	0.5575	0.000153211	0.0592461	273.409
393.0000	0.658551	0.000143386	0.0589888	273.633
392.5000	0.567763	0.000148404	0.0587511	273.828
392.0000	0.462016	0.000138453	0.0587318	273.985
391.5000	0.549185	0.000139284	0.0586731	274.118
391.0000	0.410577	0.000145622	0.0590498	274.237
390.5000	0.36538	0.000149353	0.0586173	274.335
390.0000	0.493846	0.00015829	0.0589516	274.459
389.5000	0.733872	0.000170971	0.0596897	274.57
389.0000	0.666209	0.000164067	0.0613757	274.666
388.5000	0.392261	0.000152626	0.0623719	274.746
388.0000	0.452568	0.000169596	0.0626708	274.82
387.5000	0.246382	0.000166639	0.0635854	274.899
387.0000	0.115682	0.000157588	0.0646425	274.968
386.5000	0.25162	0.000157414	0.0659695	275.028
386.0000	0.341112	0.000161677	0.0671014	275.085
385.5000	0.422557	0.00017656	0.0676436	275.12
385.0000	0.455179	0.000184029	0.0685916	275.144
384.5000	0.405893	0.000190388	0.069759	275.161
384.0000	0.521686	0.000191283	0.0709877	275.197
383.5000	0.416543	0.000180644	0.0723867	275.237
383.0000	0.421532	0.000176579	0.0738383	275.274
382.5000	0.483557	0.00017263	0.0755876	275.305
382.0000	0.418556	0.000177235	0.0766826	275.343
381.5000	0.425062	0.000196236	0.0774367	275.376
381.0000	0.190779	0.000187654	0.0785099	275.42
380.5000	0.412913	0.000192857	0.0793576	275.463
380.0000	0.444658	0.000186221	0.0802133	275.502
379.5000	0.253596	0.000173654	0.0808934	275.548
379.0000	0.580279	0.000174686	0.0809911	275.596
378.5000	0.607798	0.000162062	0.081259	275.647
378.0000	0.350119	0.000148455	0.0814828	275.687
377.5000	0.454162	0.000149174	0.0820283	275.723
377.0000	0.39741	0.00014674	0.0826969	275.752
376.5000	0.492689	0.000155671	0.0828913	275.774
376.0000	0.602828	0.000166445	0.0833705	275.803
375.5000	0.613445	0.000159282	0.0834544	275.809
375.0000	0.674556	0.000163038	0.0836523	275.82
374.5000	0.690652	0.000156783	0.0836378	275.814
374.0000	0.50723	0.000158343	0.0841269	275.826
373.5000	0.502046	0.000132606	0.0844648	275.838
373.0000	0.614489	0.000130413	0.08492	275.854
372.5000	0.714074	0.00012767	0.0849829	275.86
372.0000	0.427117	0.000114358	0.0849239	275.871
371.5000	0.459687	9.51429E-005	0.0851942	275.883
371.0000	0.536009	8.63011E-005	0.0856102	275.908
370.5000	0.520414	8.57294E-005	0.0861807	275.943
370.0000	0.541729	8.9026E-005	0.0870177	275.983
369.5000	0.773392	8.62629E-005	0.0872827	276.019
369.0000	0.640794	8.39011E-005	0.0863976	276.063
368.5000	0.513702	7.40793E-005	0.0863233	276.127
368.0000	0.320967	6.15991E-005	0.0866219	276.193
367.5000	0.333732	5.65855E-005	0.0861974	276.266
367.0000	0.300946	4.41518E-005	0.0866581	276.345
366.5000	0.226475	3.27599E-005	0.08731	276.442
366.0000	0.393739	1.07587E-005	0.0885124	276.561
365.5000	0.552263	2.08503E-005	0.0883501	276.667
365.0000	0.713717	1.80717E-005	0.0887404	276.761
364.5000	0.753639	1.00375E-005	0.0893617	276.86
364.0000	0.791456	-6.93941E-007	0.0899507	276.962
363.5000	0.851068	8.25334E-006	0.0906468	277.06
363.0000	0.901832	1.30295E-005	0.0913006	277.156
362.5000	0.8418	8.7706E-006	0.0925272	277.265
362.0000	0.923582	9.65656E-007	0.093368	277.36
361.5000	0.960836	-9.14844E-006	0.0936599	277.463
361.0000	1.09789	-2.23543E-005	0.0955874	277.562
360.5000	1.33633	-2.15905E-005	0.0971899	277.659
360.0000	1.49109	-1.10003E-005	0.0980878	277.763
359.5000	1.5268	-1.17063E-005	0.0994006	277.862
359.0000	1.50592	-1.05823E-005	0.10041	277.958
358.5000	1.86372	-7.54671E-006	0.101475	278.058
358.0000	1.98957	1.79482E-006	0.102233	278.15
357.5000	1.991	7.4453E-006	0.102808	278.232
357.0000	1.75738	-8.88963E-006	0.10435	278.335
356.5000	1.597	-1.81347E-005	0.104971	278.428
356.0000	1.60243	-2.062E-005	0.105121	278.516
355.5000	1.72965	-3.6085E-005	0.105683	278.605
355.0000	1.68771	-5.27555E-005	0.106529	278.697
354.5000	1.71307	-5.02317E-005	0.107137	278.793
354.0000	1.68741	-5.67218E-005	0.107076	278.877
353.5000	1.75432	-4.77193E-005	0.10782	278.969
353.0000	1.7654	-3.69868E-005	0.10901	279.083
352.5000	1.55231	-5.54187E-005	0.109609	279.205
352.0000	1.55756	-8.93178E-005	0.110996	279.311
351.5000	1.60181	-0.000101234	0.111915	279.415
351.0000	1.69438	-0.000122722	0.112457	279.516
350.5000	1.63826	-0.000138925	0.113117	279.616
350.0000	1.43222	-0.000143574	0.113796	279.728
349.5000	1.38444	-0.000152495	0.11479	279.859
349.0000	1.54044	-0.000181468	0.115793	279.988
348.5000	1.63392	-0.000183995	0.116304	280.098
348.0000	1.68944	-0.000192015	0.117651	280.208
347.5000	1.67857	-0.000192142	0.119429	280.329
347.0000	1.48144	-0.000187401	0.12087	280.439
346.5000	1.60429	-0.000192242	0.12162	280.55
346.0000	1.52712	-0.000203714	0.12257	280.67
345.5000	1.56393	-0.000225094	0.123973	280.797
345.0000	1.61454	-0.000238717	0.124633	280.924
344.5000	1.55466	-0.000268975	0.125441	281.023
344.0000	1.75266	-0.000256431	0.126382	281.122
343.5000	1.67568	-0.00025442	0.126956	281.227
343.0000	1.67334	-0.00025888	0.128412	281.342
342.5000	1.73269	-0.00027126	0.129206	281.456
342.0000	1.80443	-0.000279227	0.13031	281.576
341.5000	1.95609	-0.00033062	0.131649	281.685
341.0000	1.89655	-0.000344485	0.132485	281.778
340.5000	1.79121	-0.00034694	0.133678	281.88
340.0000	1.78035	-0.000373692	0.135223	282
339.5000	1.90828	-0.000379247	0.135855	282.119
339.0000	2.07598	-0.000400853	0.136787	282.236
338.5000	2.20424	-0.000420196	0.137219	282.355
338.0000	2.27778	-0.000449849	0.138144	282.471
337.5000	2.23234	-0.000469146	0.139165	282.581
337.0000	2.32959	-0.000483344	0.140444	282.711
336.5000	2.45158	-0.000504562	0.141458	282.842
336.0000	2.4072	-0.000517699	0.14263	282.986
335.5000	2.1921	-0.000564785	0.143663	283.129
335.0000	2.29207	-0.000588123	0.144355	283.275
334.5000	2.36823	-0.000608533	0.145096	283.424
334.0000	2.45102	-0.00062811	0.146243	283.573
333.5000	2.40857	-0.000642647	0.147569	283.742
333.0000	2.51834	-0.000648811	0.148714	283.91
332.5000	2.59362	-0.000672643	0.14975	284.082
332.0000	2.78803	-0.000700033	0.150828	284.24
331.5000	3.02243	-0.000734002	0.152431	284.405
331.0000	3.13817	-0.000771036	0.154077	284.593
330.5000	3.44714	-0.000812328	0.155716	284.771
330.0000	3.53538	-0.00085561	0.157771	284.967
329.5000	3.71203	-0.000882233	0.159925	285.168
329.0000	3.73477	-0.000928369	0.161971	285.377
328.5000	3.93969	-0.000971293	0.163887	285.549
328.0000	3.99505	-0.00101235	0.16536	285.708
327.5000	4.05059	-0.00105922	0.166942	285.88
327.0000	4.30936	-0.00110041	0.168998	286.041
326.5000	4.45654	-0.00113377	0.171519	286.253
326.0000	4.49338	-0.00117627	0.174061	286.46
325.5000	4.59001	-0.00120737	0.17599	286.663
325.0000	4.73218	-0.00125064	0.177726	286.864
324.5000	4.87575	-0.00128859	0.179598	287.076
324.0000	5.0353	-0.00133514	0.181972	287.312
323.5000	5.08765	-0.00136353	0.18445	287.55
323.0000	5.23572	-0.00140068	0.186683	287.783
322.5000	5.26718	-0.00146295	0.188191	288.02
322.0000	5.24142	-0.00150349	0.190206	288.251
321.5000	5.50628	-0.00152751	0.192323	288.488
321.0000	5.55848	-0.0015751	0.194258	288.719
320.5000	5.6405	-0.00160866	0.196009	288.951
320.0000	5.56589	-0.00165436	0.198159	289.194
319.5000	5.69908	-0.00168225	0.200553	289.449
319.0000	5.92284	-0.00169002	0.202685	289.716
318.5000	5.96476	-0.00173029	0.204891	289.986
318.0000	6.33428	-0.00176522	0.206874	290.221
317.5000	6.40797	-0.00180261	0.208907	290.439
317.0000	6.7892	-0.00184524	0.211521	290.684
316.5000	6.64419	-0.00188086	0.213944	290.908
316.0000	6.66211	-0.00192973	0.216643	291.154
315.5000	6.86093	-0.00195112	0.218862	291.403
315.0000	6.97835	-0.00199701	0.22122	291.672
314.5000	7.1311	-0.00201304	0.224123	291.938
314.0000	7.00162	-0.0020377	0.227212	292.226
313.5000	7.14808	-0.00206624	0.229821	292.516
313.0000	7.21818	-0.00210357	0.232251	292.839
312.5000	7.11885	-0.00212495	0.234636	293.162
312.0000	7.16392	-0.00214577	0.238031	293.502
311.5000	7.52435	-0.00218125	0.240801	293.841
311.0000	7.55548	-0.0022276	0.244257	294.204
310.5000	7.52991	-0.00227448	0.248012	294.613
310.0000	7.5854	-0.00231355	0.251247	294.999
309.5000	7.50023	-0.00234703	0.254998	295.426
309.0000	7.5554	-0.00240701	0.259119	295.907
308.5000	7.69419	-0.00247004	0.263189	296.391
308.0000	7.84788	-0.00252361	0.267194	296.859
307.5000	7.94916	-0.00258473	0.271899	297.388
307.0000	7.9296	-0.00262468	0.276122	297.882
306.5000	7.77784	-0.00269462	0.281065	298.434
306.0000	7.81479	-0.00274391	0.28589	298.965
305.5000	8.10948	-0.00279557	0.291049	299.543
305.0000	8.04215	-0.00286732	0.296195	300.106
304.5000	8.19576	-0.00292567	0.302269	300.715
304.0000	8.38373	-0.00297755	0.308715	301.337
303.5000	8.39357	-0.00304192	0.314327	301.943
303.0000	8.6378	-0.00309538	0.321363	302.602
302.5000	8.83589	-0.00312444	0.32745	303.257
302.0000	9.13197	-0.00317867	0.333486	303.919
301.5000	9.14726	-0.00323513	0.340216	304.591
301.0000	9.23932	-0.00330416	0.346881	305.259
300.5000	9.20753	-0.00332592	0.352632	305.84
300.0000	9.00777	-0.00335266	0.35903	306.523

##### Extended Information
[Comments]
Sample name	10% S-JS before DT
Comment
User
Division
Company	Labo systeme complexes hors equilibre

[Detailed Information]
Creation date	11/20/2025 11:31 AM

Data array type	Linear data array * 4
Horizontal axis	Wavelength [nm]
Vertical axis(1)	CD [mdeg]
Vertical axis(2)	LD [dOD]
Vertical axis(3)	Abs
Vertical axis(4)	HT [V]
Start	700 nm
End	300 nm
Data interval	0.5 nm
Data points	801     

[Measurement Information]
Instrument name	CD Jasco
Model name	J-1500
Serial No.	A005261638

Detector	PM-539
Detector S/N	A0052PM539
  Lock-in amp.	X mode
  HT volt	Auto

Detector	EXPML-535
Detector S/N	A0001
  Lock-in amp.	X mode
  HT volt	Auto

Accessory	PTC-517
Accessory S/N	A001361646
  Temperature	19.97 C
  Control sonsor	Holder
  Monitor sensor	Holder
  Start Mode	Keep target temperature +/-0.10 deg C while 5 seconds

Measurement date	11/20/2025 11:31 AM

Overload detect	1
Photometric mode	CD, LD, Abs, HT
Measure range	700 - 300 nm
Data pitch	0.5 nm
CD scale	200 mdeg/1.0 dOD
FL scale	200 mdeg/1.0 dOD
D.I.T.	1 sec
Bandwidth	1.00 nm
Start mode	Immediately
Scanning speed	500 nm/min
Baseline correction	Baseline
Shutter control	Auto


