TITLE	15% R-JS with DT after 72 hrs 1
DATA TYPE	
ORIGIN	JASCO
OWNER	
DATE	25/07/07
TIME	17:20:49
SPECTROMETER/DATA SYSTEM	
LOCALE	1033
RESOLUTION	
DELTAX	-0.5
XUNITS	NANOMETERS
YUNITS	CD [mdeg]
Y2UNITS	LD [dOD]
Y3UNITS	ABSORBANCE
Y4UNITS	HT [V]
FIRSTX	  700.0000
LASTX	  230.0000
NPOINTS	     941
FIRSTY	    -7.73212
MAXY	   154.47609
MINY	  -248.72977
XYDATA
700.0000	-7.73212	-0.0034744	0.0845862	321.1
699.5000	-7.45471	-0.00347244	0.0844523	320.529
699.0000	-7.55409	-0.00349486	0.0848522	319.91
698.5000	-7.64313	-0.00350128	0.0858512	319.269
698.0000	-7.9551	-0.00352699	0.0877238	318.631
697.5000	-7.75068	-0.00351589	0.0908169	318.08
697.0000	-7.7239	-0.00351703	0.0941108	317.574
696.5000	-7.49104	-0.00352312	0.0969942	317.171
696.0000	-7.63293	-0.00354648	0.0992687	316.828
695.5000	-7.9863	-0.00355559	0.102067	316.562
695.0000	-8.20612	-0.00352184	0.103984	316.354
694.5000	-8.50048	-0.00354204	0.106098	316.171
694.0000	-8.70431	-0.00356289	0.107502	316.003
693.5000	-8.98828	-0.00355883	0.10998	315.89
693.0000	-9.01995	-0.00356938	0.112416	315.839
692.5000	-9.02333	-0.00360624	0.114525	315.857
692.0000	-9.21927	-0.00363529	0.11686	315.969
691.5000	-9.37681	-0.00366765	0.119165	316.187
691.0000	-9.52293	-0.00367222	0.12128	316.527
690.5000	-9.63642	-0.00370821	0.121932	316.929
690.0000	-9.57646	-0.00372317	0.121938	317.364
689.5000	-9.5797	-0.0037532	0.120869	317.769
689.0000	-9.56445	-0.00375242	0.119327	318.155
688.5000	-9.98596	-0.00377755	0.117619	318.509
688.0000	-9.98262	-0.00379377	0.116377	318.829
687.5000	-10.0593	-0.00378975	0.115898	319.147
687.0000	-10.1091	-0.00381362	0.115678	319.445
686.5000	-10.0594	-0.00384193	0.115172	319.742
686.0000	-9.98121	-0.00384686	0.114863	320.042
685.5000	-9.98442	-0.00385215	0.11472	320.37
685.0000	-10.0724	-0.00385054	0.114953	320.695
684.5000	-10.2058	-0.00385085	0.114532	321.011
684.0000	-10.3575	-0.00384873	0.11368	321.283
683.5000	-10.4803	-0.00385335	0.112458	321.511
683.0000	-10.6863	-0.00384351	0.110974	321.651
682.5000	-10.6456	-0.00386877	0.110383	321.705
682.0000	-10.8003	-0.00386872	0.109888	321.717
681.5000	-11.2649	-0.00386648	0.109793	321.712
681.0000	-11.4451	-0.00390759	0.109994	321.718
680.5000	-11.5745	-0.00396924	0.110465	321.707
680.0000	-11.5754	-0.0039791	0.111367	321.712
679.5000	-11.8406	-0.00398691	0.112656	321.733
679.0000	-11.6249	-0.0040088	0.11328	321.749
678.5000	-11.6564	-0.00401116	0.114507	321.779
678.0000	-11.9663	-0.00402134	0.116218	321.82
677.5000	-11.9255	-0.00404282	0.117531	321.867
677.0000	-12.3241	-0.00408446	0.118636	321.928
676.5000	-12.2808	-0.00410849	0.119444	321.993
676.0000	-12.3522	-0.00413633	0.119803	322.065
675.5000	-12.2045	-0.00415741	0.119795	322.144
675.0000	-12.2069	-0.0041773	0.12068	322.228
674.5000	-12.0328	-0.00417131	0.121439	322.329
674.0000	-12.1474	-0.00421737	0.121811	322.449
673.5000	-12.3538	-0.00423547	0.121817	322.581
673.0000	-12.3078	-0.00426203	0.123217	322.706
672.5000	-12.4706	-0.00423595	0.124619	322.839
672.0000	-12.689	-0.0042595	0.124463	322.969
671.5000	-12.8532	-0.00429627	0.124985	323.103
671.0000	-12.7884	-0.00430398	0.125019	323.241
670.5000	-12.8845	-0.00431621	0.125591	323.377
670.0000	-13.2909	-0.00436611	0.12508	323.518
669.5000	-13.1226	-0.00436324	0.124779	323.675
669.0000	-13.0832	-0.00437713	0.125267	323.83
668.5000	-12.9536	-0.00439299	0.125398	323.975
668.0000	-12.9203	-0.00442037	0.124819	324.144
667.5000	-13.2235	-0.0044459	0.124652	324.31
667.0000	-13.4478	-0.00446925	0.1249	324.466
666.5000	-13.6993	-0.00449318	0.125385	324.611
666.0000	-13.9837	-0.00450874	0.125673	324.731
665.5000	-13.9829	-0.00451181	0.126699	324.835
665.0000	-14.0833	-0.00450048	0.126979	324.927
664.5000	-14.0974	-0.0045336	0.12737	325.012
664.0000	-13.9894	-0.0045504	0.128083	325.086
663.5000	-13.9133	-0.00454236	0.128389	325.137
663.0000	-14.173	-0.00455599	0.128441	325.165
662.5000	-14.3289	-0.00456747	0.128533	325.175
662.0000	-14.3209	-0.00455552	0.129614	325.153
661.5000	-14.5593	-0.00458117	0.129901	325.115
661.0000	-15.2066	-0.00461947	0.129268	325.046
660.5000	-15.6759	-0.00463072	0.128945	324.94
660.0000	-15.8385	-0.00465214	0.130004	324.799
659.5000	-16.4959	-0.00467025	0.130872	324.631
659.0000	-16.3893	-0.00467677	0.131039	324.424
658.5000	-16.3671	-0.00471235	0.131738	324.198
658.0000	-16.5814	-0.00475268	0.132524	323.988
657.5000	-16.6793	-0.00481339	0.133938	323.777
657.0000	-16.7172	-0.00485845	0.134946	323.584
656.5000	-17.0236	-0.00486587	0.135626	323.387
656.0000	-17.1297	-0.00490311	0.13711	323.235
655.5000	-17.4471	-0.00492183	0.13889	323.119
655.0000	-17.9949	-0.00495194	0.140163	323.042
654.5000	-18.1576	-0.0049737	0.140957	323
654.0000	-18.1015	-0.00498076	0.141701	322.987
653.5000	-18.163	-0.00500183	0.142825	323.008
653.0000	-18.2691	-0.00501544	0.144544	323.055
652.5000	-18.3329	-0.00500439	0.146822	323.155
652.0000	-18.5457	-0.00502271	0.148424	323.29
651.5000	-18.6898	-0.00505694	0.149681	323.469
651.0000	-18.6669	-0.00510089	0.151304	323.686
650.5000	-18.7368	-0.00511693	0.152302	323.926
650.0000	-19.3446	-0.00515344	0.152867	324.164
649.5000	-19.5917	-0.00517114	0.153096	324.39
649.0000	-19.7209	-0.00517968	0.153488	324.608
648.5000	-20.1329	-0.00521238	0.153676	324.825
648.0000	-20.4141	-0.00523366	0.153476	325.025
647.5000	-20.7162	-0.0052181	0.152789	325.166
647.0000	-21.03	-0.00525014	0.152688	325.289
646.5000	-21.1871	-0.00530421	0.152983	325.378
646.0000	-21.3408	-0.00533964	0.154021	325.439
645.5000	-21.9695	-0.00541039	0.154022	325.476
645.0000	-22.1434	-0.0054277	0.154298	325.488
644.5000	-22.0519	-0.00549258	0.154501	325.477
644.0000	-22.0742	-0.00552862	0.155136	325.453
643.5000	-22.2434	-0.0055618	0.155726	325.409
643.0000	-22.7755	-0.0055905	0.156507	325.367
642.5000	-22.9342	-0.0056465	0.157284	325.32
642.0000	-23.1717	-0.00567154	0.157743	325.254
641.5000	-23.529	-0.00568868	0.1585	325.189
641.0000	-23.8317	-0.00573795	0.159322	325.124
640.5000	-24.1771	-0.00579373	0.160244	325.059
640.0000	-24.306	-0.00581886	0.162221	325.009
639.5000	-24.7097	-0.00587841	0.164431	324.955
639.0000	-24.6481	-0.00592508	0.165518	324.915
638.5000	-25.1877	-0.00593203	0.166009	324.864
638.0000	-25.527	-0.00597866	0.167139	324.839
637.5000	-25.8654	-0.00598082	0.169447	324.836
637.0000	-26.1186	-0.00605695	0.171095	324.849
636.5000	-26.6238	-0.00609632	0.172936	324.865
636.0000	-27.1014	-0.00615375	0.174707	324.882
635.5000	-27.4381	-0.00618474	0.17613	324.907
635.0000	-27.5066	-0.00623096	0.177282	324.928
634.5000	-27.9177	-0.00626478	0.178661	324.95
634.0000	-28.5181	-0.0062848	0.180149	324.985
633.5000	-28.923	-0.00632705	0.181736	325.034
633.0000	-29.2978	-0.00637922	0.182973	325.062
632.5000	-29.7021	-0.00639941	0.184446	325.085
632.0000	-29.9642	-0.00646545	0.185435	325.113
631.5000	-30.2806	-0.00651424	0.186623	325.123
631.0000	-30.6562	-0.0065558	0.187549	325.132
630.5000	-31.6419	-0.00659707	0.189218	325.155
630.0000	-32.4155	-0.00665538	0.192277	325.172
629.5000	-33.0522	-0.00671638	0.193783	325.18
629.0000	-33.3496	-0.00679964	0.194707	325.19
628.5000	-33.8482	-0.00683441	0.195481	325.209
628.0000	-34.2643	-0.00685223	0.196539	325.252
627.5000	-34.7734	-0.00690309	0.197997	325.309
627.0000	-35.2831	-0.00694423	0.199931	325.381
626.5000	-36.1103	-0.00697781	0.201315	325.463
626.0000	-36.7477	-0.00703172	0.203264	325.562
625.5000	-37.2605	-0.00709775	0.205483	325.691
625.0000	-37.6894	-0.00715602	0.207253	325.833
624.5000	-38.1496	-0.00719268	0.209501	326.007
624.0000	-39.2484	-0.00727642	0.211838	326.196
623.5000	-40.0741	-0.007327	0.213465	326.396
623.0000	-40.7595	-0.00738478	0.214929	326.62
622.5000	-41.4131	-0.0074641	0.216949	326.851
622.0000	-41.7041	-0.00753125	0.219038	327.089
621.5000	-42.2866	-0.00760007	0.220542	327.342
621.0000	-42.8211	-0.00764477	0.222773	327.616
620.5000	-43.8964	-0.00767811	0.22471	327.889
620.0000	-44.7806	-0.0077139	0.227147	328.18
619.5000	-45.9335	-0.0078152	0.229939	328.519
619.0000	-46.7985	-0.00791022	0.232981	328.86
618.5000	-48.0089	-0.00799109	0.234568	329.218
618.0000	-48.8287	-0.00806893	0.235585	329.565
617.5000	-49.8979	-0.00813879	0.237187	329.909
617.0000	-50.5343	-0.00824834	0.239569	330.257
616.5000	-51.8492	-0.00833715	0.242272	330.583
616.0000	-52.7607	-0.00840199	0.244088	330.894
615.5000	-53.7301	-0.00847056	0.246675	331.213
615.0000	-54.9586	-0.00854593	0.249438	331.524
614.5000	-55.9629	-0.00863764	0.251781	331.84
614.0000	-57.1722	-0.00871613	0.253741	332.149
613.5000	-58.2219	-0.00880109	0.255712	332.462
613.0000	-59.4413	-0.00889461	0.258308	332.768
612.5000	-60.6832	-0.00898545	0.260797	333.069
612.0000	-61.7785	-0.00907191	0.263362	333.366
611.5000	-63.3451	-0.00915434	0.265696	333.668
611.0000	-64.9664	-0.00925484	0.267665	333.973
610.5000	-66.5683	-0.00937785	0.270454	334.284
610.0000	-68.4309	-0.0095063	0.273387	334.56
609.5000	-69.7156	-0.00962811	0.274788	334.843
609.0000	-71.3763	-0.00971237	0.276661	335.119
608.5000	-72.7725	-0.00980039	0.279037	335.406
608.0000	-74.7337	-0.00990363	0.28191	335.686
607.5000	-76.4616	-0.0100274	0.284499	335.968
607.0000	-77.9135	-0.0101485	0.287162	336.286
606.5000	-79.4777	-0.0102748	0.29114	336.594
606.0000	-81.5413	-0.010412	0.294762	336.907
605.5000	-83.7351	-0.0105717	0.298426	337.222
605.0000	-85.6387	-0.0106878	0.301605	337.557
604.5000	-87.8119	-0.0108422	0.304709	337.885
604.0000	-89.8924	-0.0109923	0.308333	338.208
603.5000	-91.8072	-0.0111599	0.31205	338.528
603.0000	-94.1234	-0.0112984	0.315365	338.835
602.5000	-96.2919	-0.011414	0.319159	339.173
602.0000	-98.2429	-0.0115327	0.32323	339.504
601.5000	-101.013	-0.0116747	0.329272	339.864
601.0000	-103.695	-0.0118385	0.334771	340.237
600.5000	-106.186	-0.0120149	0.338959	340.622
600.0000	-109.218	-0.0121892	0.343974	340.998
599.5000	-112.377	-0.0123687	0.34939	341.391
599.0000	-115.582	-0.0125526	0.354573	341.784
598.5000	-118.891	-0.0127379	0.360256	342.177
598.0000	-121.868	-0.0129199	0.365805	342.566
597.5000	-124.856	-0.0131208	0.371614	342.984
597.0000	-128.334	-0.0133099	0.377817	343.418
596.5000	-131.929	-0.0134914	0.384004	343.835
596.0000	-135.152	-0.0136816	0.390137	344.281
595.5000	-138.932	-0.0139006	0.396816	344.753
595.0000	-142.934	-0.0141053	0.403307	345.211
594.5000	-146.676	-0.0143229	0.411066	345.715
594.0000	-151.041	-0.0145692	0.419262	346.264
593.5000	-155.192	-0.0148102	0.426685	346.81
593.0000	-159.574	-0.0150398	0.434625	347.383
592.5000	-164.319	-0.0153085	0.443532	347.988
592.0000	-168.654	-0.0155315	0.451591	348.615
591.5000	-172.364	-0.0157224	0.458483	349.203
591.0000	-176.61	-0.0159337	0.466466	349.848
590.5000	-180.909	-0.0161385	0.474191	350.521
590.0000	-185.068	-0.0163406	0.482144	351.245
589.5000	-189.439	-0.0165423	0.489871	351.966
589.0000	-194.163	-0.0167521	0.498709	352.709
588.5000	-198.36	-0.0169533	0.507208	353.496
588.0000	-203.476	-0.017162	0.516254	354.331
587.5000	-207.921	-0.0173731	0.525207	355.172
587.0000	-211.903	-0.0175328	0.534285	356.065
586.5000	-216.279	-0.0177275	0.542404	356.909
586.0000	-220.39	-0.0179047	0.550586	357.769
585.5000	-223.6	-0.0180523	0.558805	358.611
585.0000	-226.851	-0.0182151	0.567657	359.462
584.5000	-230.213	-0.0183707	0.575964	360.266
584.0000	-233.062	-0.0185192	0.584864	361.113
583.5000	-235.984	-0.0186567	0.593706	361.973
583.0000	-238.986	-0.0188103	0.603539	362.89
582.5000	-241.397	-0.0189373	0.612887	363.767
582.0000	-243.289	-0.0190446	0.622054	364.608
581.5000	-245.511	-0.0191544	0.630792	365.452
581.0000	-246.936	-0.0192702	0.639104	366.275
580.5000	-247.977	-0.0193325	0.646672	367.067
580.0000	-248.558	-0.0193874	0.654128	367.801
579.5000	-248.73	-0.0194437	0.661101	368.506
579.0000	-248.529	-0.019445	0.668293	369.16
578.5000	-247.879	-0.0194976	0.675608	369.775
578.0000	-246.946	-0.0195229	0.682773	370.363
577.5000	-245.63	-0.0194782	0.688602	370.93
577.0000	-244.064	-0.0194443	0.694071	371.424
576.5000	-242.19	-0.0193848	0.699131	371.903
576.0000	-240.048	-0.0193185	0.703911	372.324
575.5000	-237.513	-0.0192332	0.70854	372.693
575.0000	-235.153	-0.0191587	0.711553	372.982
574.5000	-232.473	-0.0190696	0.714741	373.257
574.0000	-229.232	-0.0189538	0.717472	373.471
573.5000	-226.144	-0.0188612	0.719926	373.649
573.0000	-222.72	-0.0187446	0.722324	373.787
572.5000	-219.337	-0.0186328	0.723767	373.851
572.0000	-215.452	-0.0184622	0.726423	373.88
571.5000	-211.717	-0.0183596	0.728163	373.87
571.0000	-208.042	-0.0182048	0.729446	373.802
570.5000	-204.127	-0.0180681	0.730049	373.723
570.0000	-201.026	-0.0178983	0.729306	373.617
569.5000	-197.762	-0.0177544	0.729274	373.456
569.0000	-194.377	-0.0176375	0.729709	373.266
568.5000	-191.46	-0.0174821	0.729456	373.071
568.0000	-188.149	-0.0173354	0.728145	372.803
567.5000	-185.05	-0.0172115	0.727025	372.53
567.0000	-181.83	-0.0170879	0.725875	372.278
566.5000	-179.275	-0.0169617	0.725038	371.984
566.0000	-177.181	-0.0168457	0.723666	371.684
565.5000	-175.535	-0.0167724	0.721539	371.393
565.0000	-174.034	-0.0166676	0.720264	371.081
564.5000	-172.014	-0.0165534	0.719565	370.79
564.0000	-170.571	-0.0164884	0.718622	370.509
563.5000	-169.51	-0.0164141	0.717591	370.232
563.0000	-168.7	-0.0163433	0.716585	369.971
562.5000	-167.986	-0.016297	0.715689	369.719
562.0000	-167.529	-0.0162707	0.715609	369.489
561.5000	-166.969	-0.0162651	0.715767	369.249
561.0000	-166.508	-0.0162017	0.715542	369.045
560.5000	-166.473	-0.0161767	0.715469	368.875
560.0000	-166.687	-0.0161798	0.715844	368.761
559.5000	-167.574	-0.0161604	0.71641	368.67
559.0000	-168.602	-0.0161761	0.717219	368.613
558.5000	-169.532	-0.0161856	0.718587	368.594
558.0000	-170.313	-0.0161946	0.720361	368.613
557.5000	-171.027	-0.0162363	0.722501	368.663
557.0000	-172.046	-0.0162392	0.725486	368.761
556.5000	-173.4	-0.0162708	0.728174	368.892
556.0000	-175.006	-0.0163385	0.730768	369.065
555.5000	-176.807	-0.0164077	0.733953	369.294
555.0000	-178.707	-0.0164756	0.737727	369.562
554.5000	-180.57	-0.0165469	0.741822	369.883
554.0000	-182.088	-0.0165893	0.745816	370.231
553.5000	-184.012	-0.0166408	0.749723	370.558
553.0000	-186.228	-0.0167372	0.753873	370.937
552.5000	-187.85	-0.0168337	0.758903	371.356
552.0000	-189.787	-0.0169065	0.764344	371.806
551.5000	-191.335	-0.0169995	0.769948	372.269
551.0000	-193.218	-0.0170708	0.775896	372.808
550.5000	-195.11	-0.0171936	0.782345	373.34
550.0000	-196.897	-0.0173245	0.78948	373.937
549.5000	-198.743	-0.0174433	0.796151	374.519
549.0000	-199.93	-0.0175362	0.803154	375.146
548.5000	-201.077	-0.017682	0.809914	375.818
548.0000	-202.346	-0.0177657	0.818219	376.54
547.5000	-203.669	-0.0178394	0.825753	377.251
547.0000	-204.6	-0.0179251	0.83355	377.992
546.5000	-205.32	-0.0179799	0.840872	378.714
546.0000	-205.823	-0.0180496	0.848717	379.459
545.5000	-206.077	-0.0181371	0.856566	380.205
545.0000	-206.058	-0.0181786	0.864069	380.947
544.5000	-205.407	-0.0182413	0.871398	381.686
544.0000	-204.864	-0.0182579	0.878785	382.417
543.5000	-203.801	-0.0183	0.88626	383.13
543.0000	-202.194	-0.0182935	0.893996	383.82
542.5000	-200.043	-0.0182796	0.901337	384.499
542.0000	-197.848	-0.0182222	0.907925	385.155
541.5000	-195.651	-0.0181716	0.914221	385.807
541.0000	-192.794	-0.018082	0.920575	386.411
540.5000	-189.753	-0.0179974	0.926888	386.999
540.0000	-185.993	-0.0178951	0.932418	387.516
539.5000	-182.241	-0.017799	0.937077	388.006
539.0000	-178.039	-0.0176936	0.942191	388.482
538.5000	-173.097	-0.0175727	0.947173	388.912
538.0000	-168.133	-0.0174908	0.951373	389.273
537.5000	-163.056	-0.0173858	0.954935	389.586
537.0000	-157.333	-0.0172485	0.958376	389.856
536.5000	-151.797	-0.0170956	0.961895	390.05
536.0000	-146.025	-0.0169354	0.964563	390.217
535.5000	-140.056	-0.0168044	0.966305	390.332
535.0000	-133.637	-0.016637	0.967804	390.404
534.5000	-127.437	-0.0164506	0.969458	390.41
534.0000	-121.052	-0.0162924	0.970664	390.409
533.5000	-115.108	-0.0161216	0.97133	390.365
533.0000	-109.191	-0.0159735	0.971118	390.265
532.5000	-103.864	-0.0158261	0.9706	390.143
532.0000	-98.4902	-0.0156494	0.970745	389.976
531.5000	-92.9422	-0.0155178	0.970708	389.767
531.0000	-86.359	-0.0153387	0.97039	389.499
530.5000	-80.8282	-0.0151775	0.969564	389.226
530.0000	-75.3055	-0.0150052	0.968435	388.904
529.5000	-70.2721	-0.0148084	0.967646	388.588
529.0000	-65.3484	-0.0146292	0.966534	388.247
528.5000	-60.9428	-0.0144836	0.96522	387.909
528.0000	-56.6174	-0.0143037	0.963729	387.598
527.5000	-51.8493	-0.0141387	0.961793	387.24
527.0000	-47.4839	-0.0139342	0.96	386.851
526.5000	-43.8174	-0.0137777	0.958424	386.478
526.0000	-40.1063	-0.0136426	0.956169	386.074
525.5000	-36.3932	-0.013499	0.954051	385.654
525.0000	-31.4505	-0.0133232	0.952102	385.266
524.5000	-28.1741	-0.0132176	0.951156	384.9
524.0000	-24.6113	-0.0130871	0.950326	384.571
523.5000	-20.9959	-0.012934	0.949095	384.248
523.0000	-17.7715	-0.0128074	0.94791	383.932
522.5000	-14.6477	-0.0126984	0.946761	383.653
522.0000	-10.9111	-0.0125501	0.945594	383.367
521.5000	-7.89043	-0.0124179	0.944601	383.108
521.0000	-4.62988	-0.0123037	0.943938	382.85
520.5000	-1.47071	-0.0121629	0.943043	382.619
520.0000	1.54439	-0.0120744	0.941571	382.398
519.5000	4.61379	-0.0119836	0.941153	382.18
519.0000	6.98561	-0.0118902	0.941416	381.995
518.5000	9.80086	-0.0118307	0.941488	381.861
518.0000	12.9678	-0.0117379	0.942064	381.762
517.5000	16.4431	-0.0116389	0.94279	381.695
517.0000	18.8352	-0.011567	0.943826	381.631
516.5000	21.6528	-0.0114654	0.944849	381.561
516.0000	24.9657	-0.0113572	0.945412	381.512
515.5000	28.1096	-0.0112803	0.945749	381.482
515.0000	30.9709	-0.0111745	0.946314	381.443
514.5000	34.2539	-0.0110504	0.947306	381.43
514.0000	37.0132	-0.0109559	0.948397	381.392
513.5000	40.201	-0.0108472	0.949544	381.37
513.0000	43.458	-0.0107631	0.950305	381.338
512.5000	46.8671	-0.0106597	0.951106	381.316
512.0000	50.7469	-0.0105324	0.952706	381.29
511.5000	53.7314	-0.0104501	0.954108	381.261
511.0000	57.7832	-0.0103479	0.954446	381.186
510.5000	61.5099	-0.0102278	0.954206	381.052
510.0000	65.4536	-0.0100866	0.953946	380.855
509.5000	69.1005	-0.00995124	0.953717	380.607
509.0000	73.169	-0.00986092	0.953278	380.34
508.5000	77.1439	-0.00970584	0.952388	380.072
508.0000	81.5712	-0.00958975	0.951025	379.765
507.5000	85.5977	-0.00945436	0.948767	379.422
507.0000	89.6428	-0.00931978	0.946558	379.071
506.5000	93.6584	-0.00916344	0.943917	378.685
506.0000	96.7329	-0.00908903	0.941601	378.286
505.5000	100.334	-0.00892915	0.938619	377.821
505.0000	104.156	-0.00878324	0.935176	377.319
504.5000	108.309	-0.00865645	0.931062	376.727
504.0000	112.025	-0.00853507	0.926739	376.083
503.5000	115.525	-0.00841131	0.921448	375.382
503.0000	119.478	-0.00824358	0.915524	374.58
502.5000	122.922	-0.00806775	0.909951	373.811
502.0000	126.183	-0.00794611	0.904131	372.992
501.5000	129.394	-0.0077961	0.898027	372.142
501.0000	132.239	-0.00765841	0.890904	371.168
500.5000	134.836	-0.00754037	0.883201	370.036
500.0000	137.872	-0.00739841	0.875582	368.74
499.5000	140.603	-0.00721016	0.867467	367.29
499.0000	143.166	-0.00707546	0.859505	365.642
498.5000	145.189	-0.00694691	0.851457	363.985
498.0000	146.855	-0.00682861	0.844206	362.373
497.5000	148.88	-0.00668136	0.836052	360.849
497.0000	150.293	-0.00656435	0.828379	359.577
496.5000	151.41	-0.00641333	0.819928	358.352
496.0000	152.468	-0.0062928	0.81142	357.207
495.5000	153.139	-0.00615842	0.801978	356.017
495.0000	153.668	-0.00602395	0.793544	354.892
494.5000	153.947	-0.00591113	0.785134	353.797
494.0000	154.102	-0.00582984	0.777205	352.782
493.5000	154.476	-0.00571747	0.768828	351.726
493.0000	154.4	-0.00563267	0.760447	350.77
492.5000	154.213	-0.00547994	0.752135	349.804
492.0000	153.871	-0.0053775	0.742945	348.814
491.5000	153.086	-0.00526998	0.734433	347.958
491.0000	152.29	-0.0051694	0.726488	347.16
490.5000	151.478	-0.00508279	0.718281	346.402
490.0000	150.499	-0.00498725	0.709075	345.577
489.5000	149.95	-0.0048755	0.699758	344.597
489.0000	148.98	-0.00482047	0.69075	343.34
488.5000	148.194	-0.00476469	0.682406	342.047
488.0000	147.532	-0.00469563	0.673966	340.667
487.5000	146.515	-0.0046164	0.667122	339.234
487.0000	145.683	-0.00453314	0.661257	337.954
486.5000	144.51	-0.00446337	0.655723	336.785
486.0000	143.058	-0.00437251	0.650064	335.836
485.5000	141.996	-0.00428989	0.644744	335.011
485.0000	140.251	-0.00423967	0.639043	334.208
484.5000	139.348	-0.00416845	0.633668	333.478
484.0000	138.122	-0.00410764	0.627617	332.777
483.5000	136.808	-0.00404497	0.62217	332.167
483.0000	135.669	-0.0039937	0.616007	331.586
482.5000	134.669	-0.00394879	0.610687	331.101
482.0000	133.718	-0.00392684	0.605071	330.655
481.5000	132.663	-0.00387642	0.59966	330.227
481.0000	131.258	-0.0038296	0.594683	329.809
480.5000	130.478	-0.00378365	0.588805	329.28
480.0000	129.554	-0.00373004	0.582182	328.404
479.5000	128.344	-0.00366343	0.577197	327.339
479.0000	127.248	-0.00359735	0.573043	326.447
478.5000	125.945	-0.00355887	0.56892	325.868
478.0000	124.855	-0.00350263	0.563024	325.257
477.5000	124.082	-0.00347349	0.55692	324.524
477.0000	123.119	-0.00343119	0.550003	323.55
476.5000	122.376	-0.00336545	0.542872	322.234
476.0000	120.942	-0.00333579	0.536171	320.811
475.5000	119.797	-0.00328071	0.52935	319.253
475.0000	118.917	-0.00324443	0.522577	317.535
474.5000	117.831	-0.00318816	0.516466	315.722
474.0000	116.92	-0.00311227	0.511042	313.811
473.5000	115.356	-0.00302916	0.507483	311.949
473.0000	114.086	-0.00297556	0.504601	310.488
472.5000	112.888	-0.00288414	0.500187	309.431
472.0000	111.355	-0.00282251	0.496744	308.844
471.5000	109.86	-0.00275532	0.491997	308.634
471.0000	108.857	-0.00271963	0.486426	308.485
470.5000	108.124	-0.00267777	0.479191	308.005
470.0000	107.383	-0.00264458	0.472617	307.231
469.5000	105.999	-0.00257666	0.46712	306.291
469.0000	104.728	-0.00254017	0.462479	305.312
468.5000	103.343	-0.00247859	0.458119	304.544
468.0000	102.023	-0.0023994	0.453615	304.06
467.5000	100.75	-0.00233539	0.449643	303.861
467.0000	99.39	-0.00226407	0.446042	303.876
466.5000	97.9842	-0.00221012	0.442221	304.127
466.0000	96.4454	-0.00216222	0.437289	304.599
465.5000	95.2641	-0.00209747	0.430465	305.116
465.0000	93.9604	-0.00205383	0.421648	305.375
464.5000	92.416	-0.00200323	0.412781	305.122
464.0000	91.0808	-0.0019353	0.406405	304.639
463.5000	89.4726	-0.0018717	0.40109	304.15
463.0000	87.8195	-0.00182601	0.396362	303.746
462.5000	86.3404	-0.00176272	0.391267	303.455
462.0000	84.5723	-0.00169542	0.386528	303.337
461.5000	83.14	-0.00165667	0.382389	303.364
461.0000	81.6433	-0.00162285	0.37765	303.465
460.5000	80.1779	-0.00158162	0.371987	303.55
460.0000	78.7869	-0.00151806	0.366371	303.519
459.5000	77.5395	-0.001488	0.360537	303.353
459.0000	76.2292	-0.00144156	0.354052	302.955
458.5000	74.8659	-0.00138427	0.348427	302.372
458.0000	73.6266	-0.00133725	0.344146	301.777
457.5000	72.2229	-0.00128601	0.340269	301.311
457.0000	70.5824	-0.00123617	0.335453	300.841
456.5000	69.1815	-0.00119067	0.330298	300.16
456.0000	67.7243	-0.0011427	0.325778	299.393
455.5000	66.2702	-0.00113356	0.322251	298.805
455.0000	65.2356	-0.00109193	0.318419	298.517
454.5000	63.9188	-0.00104519	0.314076	298.292
454.0000	62.4889	-0.000997535	0.310048	298.031
453.5000	61.2656	-0.000955309	0.305991	297.744
453.0000	60.1277	-0.000909691	0.302058	297.461
452.5000	58.9567	-0.000847287	0.298259	297.172
452.0000	57.9274	-0.00079839	0.29474	296.857
451.5000	56.7706	-0.000765414	0.291111	296.52
451.0000	55.4093	-0.000712699	0.28831	296.246
450.5000	54.3224	-0.000664511	0.286045	296.143
450.0000	53.1247	-0.000651555	0.283329	296.164
449.5000	51.8573	-0.000619443	0.27974	296.09
449.0000	50.9127	-0.000598939	0.276799	295.912
448.5000	50.1518	-0.000566152	0.275169	295.863
448.0000	49.3087	-0.000526808	0.273483	296.092
447.5000	48.1663	-0.000499237	0.270124	296.345
447.0000	47.3197	-0.000463754	0.265807	296.311
446.5000	46.2731	-0.00044314	0.262199	296.051
446.0000	45.4419	-0.000405591	0.259432	295.699
445.5000	44.4594	-0.000388908	0.256759	295.307
445.0000	43.5096	-0.000361381	0.253764	294.857
444.5000	42.6544	-0.000344987	0.251064	294.38
444.0000	41.928	-0.00033087	0.248749	293.959
443.5000	40.8414	-0.000284415	0.246273	293.564
443.0000	40.1365	-0.000289746	0.24383	293.256
442.5000	39.3245	-0.000277404	0.240959	292.963
442.0000	38.5629	-0.000246049	0.238477	292.706
441.5000	37.9662	-0.000211231	0.236082	292.436
441.0000	37.2862	-0.000176357	0.234097	292.195
440.5000	36.7035	-0.000143878	0.23216	291.969
440.0000	35.9614	-0.000126901	0.230176	291.751
439.5000	34.9343	-0.000100254	0.228086	291.521
439.0000	34.2556	-8.14036E-005	0.22566	291.246
438.5000	33.4298	-4.31877E-005	0.22373	290.963
438.0000	32.6364	-2.16802E-005	0.221336	290.699
437.5000	31.8645	-5.08575E-006	0.218416	290.49
437.0000	31.1501	2.92385E-005	0.215352	290.318
436.5000	30.3773	5.10721E-005	0.213014	290.204
436.0000	29.6014	6.14227E-005	0.210887	290.101
435.5000	29.0113	8.99705E-005	0.208543	289.97
435.0000	28.2394	0.000103602	0.206159	289.797
434.5000	27.5242	0.000140732	0.204573	289.604
434.0000	26.8968	0.000163391	0.203056	289.418
433.5000	26.3962	0.000182183	0.201404	289.228
433.0000	25.8876	0.000191223	0.1995	289.003
432.5000	25.3255	0.00022204	0.197628	288.786
432.0000	24.7099	0.000266928	0.195412	288.547
431.5000	24.1198	0.000285865	0.193664	288.34
431.0000	23.4086	0.000326661	0.192159	288.138
430.5000	22.6234	0.000343933	0.190306	287.939
430.0000	22.2311	0.000359585	0.188957	287.746
429.5000	21.8034	0.000394878	0.18773	287.541
429.0000	21.4329	0.00042357	0.186551	287.319
428.5000	20.5991	0.000424626	0.185988	287.105
428.0000	20.1488	0.000455803	0.184987	286.89
427.5000	19.4809	0.000476722	0.183906	286.701
427.0000	19.0278	0.000483953	0.182798	286.505
426.5000	18.6004	0.000496595	0.181502	286.27
426.0000	17.9776	0.000503642	0.180194	285.994
425.5000	17.4248	0.000497217	0.179374	285.68
425.0000	17.0684	0.000516006	0.178482	285.374
424.5000	16.4182	0.000521095	0.17736	285.132
424.0000	16.1388	0.0005221	0.176494	284.973
423.5000	15.9061	0.000521433	0.175689	284.853
423.0000	15.6453	0.000528019	0.175147	284.746
422.5000	15.7165	0.000530128	0.174603	284.641
422.0000	15.2695	0.00055453	0.174235	284.541
421.5000	14.6397	0.00054822	0.173206	284.439
421.0000	14.3119	0.000542139	0.172902	284.355
420.5000	14.0792	0.000553348	0.172223	284.269
420.0000	13.8468	0.000559137	0.171766	284.197
419.5000	13.4267	0.000552212	0.171329	284.105
419.0000	13.1656	0.000565631	0.170983	284.024
418.5000	12.9433	0.000584993	0.170657	283.955
418.0000	12.7346	0.000588049	0.170796	283.929
417.5000	12.686	0.000604064	0.17084	283.956
417.0000	12.4998	0.000613515	0.170525	284.031
416.5000	12.339	0.000612333	0.170585	284.085
416.0000	11.8745	0.000603456	0.170944	284.092
415.5000	11.6845	0.000607136	0.171444	284.052
415.0000	11.277	0.000601979	0.171369	283.986
414.5000	10.8178	0.000623039	0.171204	283.91
414.0000	10.6049	0.000613648	0.171452	283.857
413.5000	10.4436	0.000595306	0.171989	283.827
413.0000	10.5331	0.000620442	0.172582	283.807
412.5000	10.5042	0.000628905	0.173075	283.808
412.0000	10.199	0.000613006	0.173378	283.791
411.5000	10.186	0.000604517	0.173525	283.788
411.0000	10.1593	0.000618883	0.173922	283.804
410.5000	10.1498	0.000615406	0.174232	283.835
410.0000	9.99052	0.000620703	0.174624	283.886
409.5000	9.86558	0.000623383	0.174772	283.941
409.0000	9.70588	0.000612495	0.174891	283.99
408.5000	9.61748	0.000606508	0.175237	284.037
408.0000	9.45238	0.000617621	0.175641	284.067
407.5000	9.60368	0.000620007	0.176264	284.085
407.0000	9.36524	0.000595051	0.176828	284.094
406.5000	9.50822	0.000590695	0.177115	284.111
406.0000	9.48373	0.000564292	0.17762	284.108
405.5000	9.35682	0.000562417	0.177943	284.073
405.0000	9.12908	0.000563175	0.178593	284.008
404.5000	8.95304	0.000555684	0.179048	283.91
404.0000	8.76963	0.000539261	0.179859	283.797
403.5000	8.77381	0.000546714	0.180802	283.67
403.0000	8.76947	0.000543659	0.18162	283.537
402.5000	8.61181	0.000519796	0.182601	283.398
402.0000	8.63895	0.000521993	0.183632	283.273
401.5000	8.54035	0.000491005	0.184999	283.148
401.0000	8.5939	0.000481225	0.186558	283.066
400.5000	8.56786	0.000480846	0.187777	283.013
400.0000	8.5734	0.000459209	0.188712	282.99
399.5000	8.49371	0.000457951	0.189387	282.987
399.0000	8.4178	0.000461767	0.190518	283.006
398.5000	8.14598	0.00046607	0.191752	283.045
398.0000	8.07979	0.000449782	0.19326	283.127
397.5000	8.11674	0.000447292	0.194359	283.234
397.0000	8.12764	0.000424841	0.195414	283.374
396.5000	8.17531	0.000413339	0.196431	283.542
396.0000	8.11952	0.000398243	0.19786	283.731
395.5000	8.18091	0.00039052	0.199369	283.955
395.0000	8.02837	0.000371987	0.200585	284.215
394.5000	8.08499	0.000355661	0.201467	284.503
394.0000	8.14056	0.000351048	0.202267	284.801
393.5000	8.00234	0.000316159	0.203169	285.1
393.0000	8.02203	0.00032365	0.203697	285.394
392.5000	7.93172	0.000300323	0.204608	285.655
392.0000	7.87834	0.000304923	0.205394	285.89
391.5000	7.84476	0.000271889	0.206972	286.118
391.0000	7.86993	0.000265198	0.208412	286.329
390.5000	7.91028	0.000227542	0.20955	286.526
390.0000	7.86494	0.000195779	0.210385	286.723
389.5000	7.90389	0.000182723	0.211342	286.891
389.0000	7.89818	0.000189087	0.212874	287.057
388.5000	7.84332	0.000170847	0.21456	287.218
388.0000	7.7675	0.000133398	0.216155	287.379
387.5000	7.77953	0.000130957	0.217416	287.535
387.0000	7.92628	0.000120188	0.218942	287.661
386.5000	7.79289	0.00010809	0.220869	287.777
386.0000	7.9236	9.87964E-005	0.223054	287.89
385.5000	7.93875	7.97498E-005	0.22512	288.002
385.0000	7.8834	5.87959E-005	0.227087	288.108
384.5000	8.10084	4.85195E-005	0.229354	288.21
384.0000	8.11353	4.75192E-005	0.231509	288.309
383.5000	8.32433	2.93224E-005	0.233628	288.406
383.0000	8.13975	1.7928E-005	0.235422	288.513
382.5000	8.1577	6.9306E-006	0.237328	288.616
382.0000	8.24973	1.36263E-005	0.239346	288.728
381.5000	8.14421	-1.56468E-006	0.241643	288.827
381.0000	8.09357	-1.59759E-005	0.243701	288.943
380.5000	8.2797	-3.48114E-005	0.245385	289.058
380.0000	8.15314	-4.2917E-005	0.24711	289.169
379.5000	8.05839	-4.8728E-005	0.248802	289.281
379.0000	7.95448	-6.2899E-005	0.250402	289.392
378.5000	7.96198	-7.41239E-005	0.251454	289.516
378.0000	7.98083	-8.23152E-005	0.251805	289.626
377.5000	7.94233	-0.000107614	0.252129	289.725
377.0000	7.84939	-0.000116223	0.252836	289.81
376.5000	7.90892	-0.000125287	0.253551	289.896
376.0000	7.87733	-0.000147916	0.253806	289.983
375.5000	7.85082	-0.000179737	0.254222	290.066
375.0000	7.63253	-0.000191216	0.255288	290.152
374.5000	7.67349	-0.000203942	0.256308	290.229
374.0000	7.73799	-0.000226961	0.257539	290.302
373.5000	7.63588	-0.000220365	0.258622	290.379
373.0000	7.57673	-0.000243765	0.259763	290.467
372.5000	7.49076	-0.000265922	0.260936	290.544
372.0000	7.386	-0.000294215	0.262235	290.631
371.5000	7.52327	-0.000310112	0.263323	290.713
371.0000	7.46868	-0.000333983	0.26434	290.797
370.5000	7.32281	-0.000356184	0.265462	290.9
370.0000	7.35949	-0.000376491	0.266904	290.998
369.5000	7.32844	-0.000402247	0.268562	291.114
369.0000	7.19152	-0.000423166	0.270032	291.24
368.5000	7.05971	-0.000467929	0.271507	291.391
368.0000	6.99581	-0.000486424	0.273505	291.55
367.5000	6.82932	-0.00050152	0.275654	291.7
367.0000	6.70277	-0.000502376	0.277651	291.857
366.5000	6.70496	-0.000526116	0.278981	292.01
366.0000	6.66692	-0.000540858	0.280231	292.19
365.5000	6.73297	-0.000564804	0.281839	292.36
365.0000	6.84041	-0.00059053	0.283606	292.511
364.5000	6.92638	-0.000624332	0.285058	292.673
364.0000	6.92675	-0.000636958	0.286157	292.838
363.5000	6.92246	-0.000647166	0.286691	293.003
363.0000	6.93364	-0.000659961	0.287605	293.185
362.5000	6.93839	-0.000680019	0.288958	293.37
362.0000	6.79108	-0.0007026	0.290219	293.531
361.5000	6.69654	-0.000736397	0.291331	293.691
361.0000	6.81121	-0.00074644	0.292888	293.852
360.5000	6.72209	-0.000752364	0.294865	294.023
360.0000	6.52275	-0.000760185	0.296723	294.191
359.5000	6.50084	-0.000770736	0.298359	294.367
359.0000	6.47941	-0.000791372	0.299566	294.538
358.5000	6.56822	-0.000809931	0.30073	294.708
358.0000	6.55515	-0.000819006	0.302219	294.871
357.5000	6.35492	-0.000852792	0.303885	295.045
357.0000	6.1795	-0.000883215	0.3051	295.228
356.5000	5.91571	-0.000886196	0.306212	295.395
356.0000	5.8128	-0.000885986	0.307707	295.562
355.5000	5.4356	-0.000914959	0.309497	295.731
355.0000	5.42194	-0.000927307	0.311551	295.899
354.5000	5.391	-0.000940576	0.313644	296.08
354.0000	4.92246	-0.000965561	0.315393	296.257
353.5000	4.87108	-0.000977452	0.317201	296.441
353.0000	4.79256	-0.000989123	0.319339	296.633
352.5000	4.67265	-0.00099953	0.321514	296.843
352.0000	4.456	-0.00104372	0.32289	297.03
351.5000	4.38996	-0.001046	0.3241	297.223
351.0000	4.23517	-0.00107296	0.325083	297.399
350.5000	4.04334	-0.00108214	0.326622	297.581
350.0000	3.7896	-0.00112305	0.328543	297.782
349.5000	3.60794	-0.00113361	0.330255	297.986
349.0000	3.35337	-0.001153	0.331817	298.186
348.5000	3.28312	-0.00117566	0.333415	298.383
348.0000	3.13622	-0.00121725	0.335248	298.583
347.5000	2.97627	-0.00125092	0.337127	298.783
347.0000	2.85743	-0.00127401	0.339244	298.992
346.5000	2.45441	-0.00131716	0.341172	299.197
346.0000	2.47157	-0.00133943	0.342793	299.379
345.5000	2.27421	-0.00135888	0.3446	299.582
345.0000	2.03218	-0.00139333	0.346626	299.802
344.5000	1.95202	-0.00142349	0.348428	300.005
344.0000	1.59293	-0.00144801	0.350302	300.213
343.5000	1.5996	-0.00148405	0.35249	300.423
343.0000	1.08022	-0.00151042	0.354652	300.625
342.5000	1.10235	-0.00154589	0.356858	300.847
342.0000	0.759826	-0.00157247	0.359058	301.083
341.5000	0.713544	-0.00159937	0.361226	301.308
341.0000	0.555532	-0.00164883	0.363175	301.52
340.5000	0.400004	-0.00167037	0.364965	301.746
340.0000	0.299754	-0.0016899	0.366837	301.977
339.5000	0.119781	-0.00172743	0.368828	302.226
339.0000	-0.0448905	-0.00173609	0.37041	302.455
338.5000	-0.0717232	-0.0017557	0.37216	302.689
338.0000	-0.384622	-0.00178335	0.374457	302.953
337.5000	-0.635332	-0.00180869	0.376233	303.213
337.0000	-0.777931	-0.0018566	0.378083	303.467
336.5000	-0.876818	-0.00187011	0.379931	303.713
336.0000	-1.16177	-0.00191219	0.382074	303.986
335.5000	-1.37695	-0.00192208	0.383847	304.251
335.0000	-1.51182	-0.00194389	0.385289	304.515
334.5000	-1.85114	-0.0019692	0.387395	304.801
334.0000	-2.19236	-0.00203078	0.389656	305.082
333.5000	-2.36207	-0.00206549	0.391899	305.378
333.0000	-2.81563	-0.00209084	0.393797	305.676
332.5000	-3.0202	-0.00211876	0.395808	305.959
332.0000	-3.09412	-0.00213212	0.398102	306.252
331.5000	-3.20763	-0.00217619	0.400295	306.546
331.0000	-3.39292	-0.00219801	0.402946	306.862
330.5000	-3.439	-0.00222542	0.405293	307.153
330.0000	-3.79648	-0.00226039	0.407562	307.446
329.5000	-4.00464	-0.00229577	0.410165	307.756
329.0000	-4.31186	-0.00231821	0.413532	308.068
328.5000	-4.47441	-0.00235787	0.416497	308.347
328.0000	-4.63266	-0.00239103	0.419064	308.603
327.5000	-4.84056	-0.00240921	0.421561	308.859
327.0000	-5.17836	-0.00244461	0.424357	309.108
326.5000	-5.32617	-0.00249288	0.427719	309.416
326.0000	-5.2063	-0.00251157	0.430858	309.726
325.5000	-5.33323	-0.00251636	0.433369	310.017
325.0000	-5.44224	-0.00254152	0.435533	310.301
324.5000	-5.65665	-0.00259511	0.438134	310.594
324.0000	-5.98464	-0.00262216	0.44123	310.918
323.5000	-6.57512	-0.00266044	0.444355	311.219
323.0000	-7.11671	-0.00267833	0.447517	311.53
322.5000	-7.42212	-0.00270018	0.450261	311.838
322.0000	-7.48312	-0.00271887	0.453067	312.152
321.5000	-7.94242	-0.00273756	0.456126	312.46
321.0000	-7.88766	-0.00276526	0.458981	312.781
320.5000	-8.31618	-0.00277394	0.461577	313.107
320.0000	-8.65544	-0.00278339	0.463923	313.417
319.5000	-8.8938	-0.00280654	0.466749	313.752
319.0000	-9.06579	-0.00283418	0.469927	314.11
318.5000	-9.27661	-0.00284999	0.473311	314.463
318.0000	-9.78555	-0.00285953	0.476464	314.773
317.5000	-10.1637	-0.00290426	0.479569	315.078
317.0000	-10.6611	-0.00293698	0.483141	315.41
316.5000	-10.8745	-0.00294903	0.486895	315.735
316.0000	-11.0755	-0.00297893	0.490518	316.081
315.5000	-11.2464	-0.00296731	0.493488	316.424
315.0000	-11.2639	-0.00299841	0.49661	316.825
314.5000	-11.6133	-0.00302024	0.499807	317.21
314.0000	-11.9779	-0.00306468	0.503369	317.604
313.5000	-12.1629	-0.00306968	0.506938	318.006
313.0000	-12.2924	-0.00310264	0.510836	318.452
312.5000	-12.2514	-0.00315063	0.514498	318.892
312.0000	-12.3835	-0.00317772	0.518386	319.35
311.5000	-12.4212	-0.00318467	0.522839	319.826
311.0000	-12.4941	-0.00319252	0.527262	320.315
310.5000	-12.5044	-0.00321715	0.531833	320.849
310.0000	-12.6482	-0.00323437	0.535863	321.363
309.5000	-12.4868	-0.00325216	0.540193	321.881
309.0000	-12.2873	-0.00325649	0.545202	322.453
308.5000	-12.0757	-0.00325891	0.550304	323.041
308.0000	-11.509	-0.00326724	0.555307	323.596
307.5000	-11.5154	-0.00328309	0.561095	324.219
307.0000	-11.0227	-0.00329813	0.566343	324.785
306.5000	-10.7103	-0.00331949	0.572437	325.405
306.0000	-10.5626	-0.00332393	0.578081	325.996
305.5000	-10.0379	-0.0033359	0.584128	326.637
305.0000	-9.76321	-0.00333057	0.590106	327.247
304.5000	-9.3589	-0.0033339	0.596327	327.904
304.0000	-9.01056	-0.00330447	0.602791	328.564
303.5000	-8.50437	-0.00332421	0.609028	329.206
303.0000	-7.76956	-0.00333447	0.615209	329.888
302.5000	-7.39074	-0.00333659	0.621485	330.564
302.0000	-6.59901	-0.00331381	0.627655	331.237
301.5000	-5.84962	-0.00331067	0.633939	331.906
301.0000	-5.35577	-0.00328256	0.639922	332.573
300.5000	-4.59515	-0.0032678	0.645151	333.168
300.0000	-3.98711	-0.00327374	0.651007	333.85
299.5000	-3.41248	-0.00324488	0.656351	334.49
299.0000	-2.7278	-0.00322195	0.662042	335.119
298.5000	-2.09541	-0.00317392	0.668156	335.756
298.0000	-1.16506	-0.00312662	0.673383	336.361
297.5000	-0.417421	-0.00308919	0.678802	336.994
297.0000	0.530657	-0.00304576	0.683517	337.532
296.5000	1.62236	-0.00301535	0.687892	338.058
296.0000	2.12959	-0.00295724	0.692291	338.561
295.5000	3.08305	-0.00291058	0.696666	339.041
295.0000	4.0646	-0.00284226	0.700767	339.511
294.5000	4.51412	-0.0028056	0.705029	340.011
294.0000	5.33701	-0.00273307	0.709402	340.533
293.5000	5.91401	-0.00268056	0.713402	340.997
293.0000	6.72896	-0.00262142	0.717584	341.494
292.5000	7.34956	-0.00256301	0.722144	342.018
292.0000	7.58904	-0.00249445	0.726252	342.498
291.5000	8.02575	-0.00243896	0.730644	342.979
291.0000	8.54965	-0.00238812	0.735048	343.478
290.5000	8.82189	-0.00233418	0.739145	344.003
290.0000	9.09356	-0.00228744	0.743037	344.502
289.5000	9.32861	-0.00221876	0.746756	344.961
289.0000	9.95106	-0.00217406	0.750657	345.424
288.5000	10.1801	-0.00211646	0.755028	345.946
288.0000	10.336	-0.0020657	0.759015	346.465
287.5000	10.3001	-0.00202188	0.763306	347.032
287.0000	10.5934	-0.0019789	0.76796	347.619
286.5000	10.6431	-0.00190067	0.772936	348.188
286.0000	11.1114	-0.00182262	0.777452	348.735
285.5000	11.2974	-0.00179789	0.78173	349.277
285.0000	11.3873	-0.00175573	0.786346	349.85
284.5000	11.2703	-0.00170863	0.790697	350.376
284.0000	11.5023	-0.00166762	0.795702	350.958
283.5000	11.6142	-0.00160855	0.800784	351.56
283.0000	11.694	-0.00154946	0.805421	352.149
282.5000	11.8976	-0.00151093	0.810521	352.794
282.0000	11.8239	-0.00146426	0.816051	353.454
281.5000	11.6937	-0.00143189	0.821606	354.111
281.0000	11.6533	-0.0014114	0.827227	354.788
280.5000	10.9812	-0.00136825	0.833121	355.531
280.0000	10.6507	-0.00134931	0.839501	356.305
279.5000	10.7182	-0.00131324	0.846474	357.112
279.0000	10.4916	-0.0012764	0.853247	357.909
278.5000	9.95303	-0.00126868	0.860084	358.773
278.0000	9.44564	-0.00125656	0.866937	359.704
277.5000	8.63227	-0.00122196	0.873663	360.584
277.0000	8.0146	-0.00120326	0.881584	361.556
276.5000	7.37307	-0.00116409	0.889944	362.565
276.0000	7.01924	-0.00116521	0.897611	363.513
275.5000	6.18019	-0.00114561	0.905825	364.582
275.0000	5.76828	-0.00113831	0.914662	365.704
274.5000	4.82776	-0.00111984	0.923838	366.855
274.0000	4.09205	-0.00112122	0.934401	368.133
273.5000	2.99872	-0.00115775	0.944471	369.343
273.0000	2.30102	-0.00115181	0.955227	370.663
272.5000	1.17602	-0.00114973	0.966305	372.033
272.0000	0.367651	-0.00116274	0.977718	373.459
271.5000	-0.816152	-0.0011784	0.990144	375.022
271.0000	-2.09131	-0.00121678	1.00224	376.581
270.5000	-3.89424	-0.00126138	1.01486	378.202
270.0000	-5.21732	-0.0013084	1.02806	379.888
269.5000	-6.82648	-0.00138298	1.0422	381.662
269.0000	-8.57233	-0.00144951	1.05571	383.384
268.5000	-9.72444	-0.00150479	1.07019	385.278
268.0000	-11.9675	-0.00157664	1.08524	387.24
267.5000	-13.9699	-0.00165461	1.1013	389.298
267.0000	-16.29	-0.00175	1.11875	391.521
266.5000	-18.7271	-0.00183538	1.13641	393.815
266.0000	-21.3647	-0.00192873	1.15239	395.931
265.5000	-24.3171	-0.00204938	1.16892	398.197
265.0000	-27.4412	-0.00215183	1.18681	400.633
264.5000	-30.9387	-0.00231125	1.20443	403.03
264.0000	-34.217	-0.00248252	1.22231	405.48
263.5000	-38.7536	-0.00261	1.24155	408.121
263.0000	-42.6799	-0.00277675	1.25926	410.572
262.5000	-47.1315	-0.00293264	1.27908	413.345
262.0000	-51.2852	-0.003073	1.29855	416.072
261.5000	-55.6778	-0.00322083	1.31889	418.887
261.0000	-59.0227	-0.00338026	1.33889	421.658
260.5000	-64.3391	-0.00357687	1.36041	424.667
260.0000	-69.5784	-0.00377293	1.38255	427.804
259.5000	-73.6546	-0.00394233	1.40515	431.065
259.0000	-78.6004	-0.00412112	1.42822	434.454
258.5000	-82.3491	-0.00431629	1.45254	438.002
258.0000	-86.1595	-0.004441	1.47813	441.703
257.5000	-89.042	-0.00460241	1.50371	445.376
257.0000	-92.6525	-0.00475517	1.53194	449.434
256.5000	-94.9216	-0.00485426	1.55959	453.478
256.0000	-97.6903	-0.0049835	1.58983	457.939
255.5000	-98.7086	-0.00512299	1.62182	462.627
255.0000	-99.5058	-0.00530965	1.6554	467.548
254.5000	-99.4902	-0.00543161	1.68857	472.439
254.0000	-99.6458	-0.00554241	1.72291	477.54
253.5000	-101.181	-0.00572276	1.76219	483.442
253.0000	-100.375	-0.00578222	1.79915	489.042
252.5000	-96.765	-0.00586589	1.85629	497.765
252.0000	-95.0373	-0.0059184	1.90569	505.379
251.5000	-91.9068	-0.00600585	1.95038	512.339
251.0000	-88.6004	-0.00611702	1.99685	519.641
250.5000	-85.492	-0.00613022	2.04544	527.327
250.0000	-83.3797	-0.00611685	2.09324	534.974
249.5000	-80.9621	-0.00613641	2.14264	543.007
249.0000	-76.0938	-0.00611104	2.19628	551.853
248.5000	-71.3752	-0.00613359	2.24941	560.656
248.0000	-66.7418	-0.00588533	2.30763	570.367
247.5000	-64.2674	-0.00576759	2.36478	580.056
247.0000	-58.3713	-0.00568141	2.42701	590.802
246.5000	-54.6556	-0.00539494	2.49147	602.101
246.0000	-50.2089	-0.00534865	2.55871	614.004
245.5000	-45.8364	-0.00532173	2.63167	627.139
245.0000	-40.2637	-0.00488944	2.70766	641.067
244.5000	-39.2858	-0.00473942	2.78589	655.691
244.0000	-37.074	-0.00431351	2.86633	671.023
243.5000	-31.9552	-0.00402467	2.94487	686.255
243.0000	-25.3655	-0.00350771	3.02471	702.041
242.5000	-22.8877	-0.00320037	3.11362	719.998
242.0000	-16.7096	-0.00282628	3.1905	735.875
241.5000	-10.3778	-0.00273478	3.27566	753.803
241.0000	-11.4331	-0.00241381	3.35189	770.179
240.5000	-10.2775	-0.00211906	3.43465	788.328
240.0000	-10.6923	-0.00193248	3.50746	804.697
239.5000	-6.56295	-0.00183132	3.58882	823.411
239.0000	-2.8754	-0.00164976	3.65549	839.105
238.5000	0.698229	-0.00133908	3.72231	855.089
238.0000	-2.16068	-0.00127384	3.78752	871.124
237.5000	2.88597	-0.000409216	3.84228	884.869
237.0000	1.80735	-0.000464662	3.89464	898.344
236.5000	2.66171	-0.000274422	3.9419	910.78
236.0000	2.73556	-0.000439942	3.98241	921.677
235.5000	2.04399	-0.000639766	4.02314	932.944
235.0000	-0.768658	-0.00030279	4.04758	939.871
234.5000	-3.60236	-0.000494471	4.07059	946.572
234.0000	-2.60621	-0.000478176	4.09162	952.855
233.5000	-4.60839	-0.000525823	4.11179	959.091
233.0000	-8.11942	-0.000323802	4.12848	964.577
232.5000	-6.21702	-0.000126864	4.14108	968.971
232.0000	-6.25095	-0.000253887	4.15159	973.07
231.5000	-5.69382	-0.000153682	4.15725	975.726
231.0000	-4.53013	-0.000248736	4.16089	978.047
230.5000	-9.84101	-0.00042162	4.16276	979.891
230.0000	-12.6638	-0.000362072	4.16268	981.195

##### Extended Information
[Comments]
Sample name	15% R-JS with DT after 72 hrs 1
Comment
User
Division
Company	Labo systeme complexes hors equilibre

[Detailed Information]
Creation date	7/7/2025 5:20 PM

Data array type	Linear data array * 4
Horizontal axis	Wavelength [nm]
Vertical axis(1)	CD [mdeg]
Vertical axis(2)	LD [dOD]
Vertical axis(3)	Abs
Vertical axis(4)	HT [V]
Start	700 nm
End	230 nm
Data interval	0.5 nm
Data points	941     

[Measurement Information]
Instrument name	CD Jasco
Model name	J-1500
Serial No.	A005261638

Detector	PM-539
Detector S/N	A0052PM539
  Lock-in amp.	X mode
  HT volt	Auto

Detector	EXPML-535
Detector S/N	A0001
  Lock-in amp.	X mode
  HT volt	Auto

Accessory	PTC-517
Accessory S/N	A001361646
  Temperature	20.01 C
  Control sonsor	Holder
  Monitor sensor	Holder
  Start Mode	Keep target temperature +/-0.10 deg C while 5 seconds

Measurement date	7/7/2025 5:20 PM

Overload detect	1
Photometric mode	CD, LD, Abs, HT
Measure range	700 - 230 nm
Data pitch	0.5 nm
CD scale	200 mdeg/1.0 dOD
FL scale	200 mdeg/1.0 dOD
D.I.T.	1 sec
Bandwidth	1.00 nm
Start mode	Immediately
Scanning speed	500 nm/min
Baseline correction	Baseline
Shutter control	Auto

Concentration	50 umol/L
Solvent	water 

