TITLE	20% R-JS with DT after 72 hrs 1
DATA TYPE	
ORIGIN	JASCO
OWNER	
DATE	25/07/07
TIME	17:15:42
SPECTROMETER/DATA SYSTEM	
LOCALE	1033
RESOLUTION	
DELTAX	-0.5
XUNITS	NANOMETERS
YUNITS	CD [mdeg]
Y2UNITS	LD [dOD]
Y3UNITS	ABSORBANCE
Y4UNITS	HT [V]
FIRSTX	  700.0000
LASTX	  230.0000
NPOINTS	     941
FIRSTY	     5.17118
MAXY	    68.46885
MINY	   -50.39089
XYDATA
700.0000	5.17118	0.000236256	0.0736637	320.009
699.5000	5.05262	0.000228619	0.0735488	319.441
699.0000	5.05999	0.000247854	0.0738104	318.81
698.5000	5.2373	0.000232822	0.0745713	318.148
698.0000	4.95456	0.000219803	0.0765214	317.519
697.5000	5.17704	0.000227698	0.079698	316.978
697.0000	5.34864	0.000245832	0.0830777	316.482
696.5000	5.72292	0.000259369	0.0856792	316.052
696.0000	5.57816	0.00024503	0.0877023	315.685
695.5000	5.87134	0.000256238	0.09026	315.397
695.0000	5.81932	0.000263947	0.0921734	315.188
694.5000	5.97929	0.000265376	0.0943539	315.013
694.0000	5.81361	0.000255316	0.0959812	314.867
693.5000	5.47391	0.000253391	0.0982663	314.736
693.0000	5.31264	0.000275604	0.10043	314.658
692.5000	5.46153	0.000254592	0.102417	314.664
692.0000	5.45863	0.000252653	0.104607	314.761
691.5000	5.76947	0.0002492	0.106757	314.963
691.0000	5.88141	0.000246103	0.108734	315.289
690.5000	5.67709	0.000222308	0.10915	315.666
690.0000	5.74522	0.000208418	0.108965	316.081
689.5000	5.50393	0.000194809	0.107931	316.488
689.0000	5.37159	0.000191731	0.106372	316.871
688.5000	5.29807	0.000173439	0.10474	317.232
688.0000	5.60114	0.000190182	0.103654	317.566
687.5000	5.53579	0.0002012	0.103192	317.885
687.0000	5.47365	0.000190625	0.102911	318.176
686.5000	5.69064	0.000167982	0.102314	318.462
686.0000	5.60736	0.000166369	0.101822	318.743
685.5000	5.72002	0.0001564	0.101475	319.049
685.0000	5.8721	0.000181478	0.101795	319.382
684.5000	5.73492	0.000160616	0.101357	319.696
684.0000	5.48224	0.000179508	0.100557	319.972
683.5000	5.43678	0.000194957	0.0993852	320.204
683.0000	5.39028	0.000202721	0.097983	320.352
682.5000	5.25236	0.000199255	0.0976023	320.426
682.0000	5.36202	0.000210293	0.0972095	320.448
681.5000	5.10956	0.000223817	0.0970976	320.442
681.0000	5.47677	0.000214597	0.0971858	320.437
680.5000	5.77756	0.000193566	0.0976138	320.421
680.0000	6.02771	0.000207597	0.0985008	320.425
679.5000	5.85764	0.000189115	0.099624	320.429
679.0000	6.23223	0.00017611	0.100188	320.439
678.5000	6.10803	0.000179622	0.101312	320.459
678.0000	6.18853	0.000177283	0.102935	320.491
677.5000	6.29193	0.000191574	0.104292	320.542
677.0000	6.107	0.000166838	0.105192	320.582
676.5000	6.47038	0.000162211	0.105912	320.639
676.0000	6.94626	0.000160078	0.106056	320.688
675.5000	7.5437	0.000125905	0.106019	320.764
675.0000	7.54696	0.000149269	0.106871	320.845
674.5000	7.69767	0.000140254	0.107599	320.942
674.0000	8.00795	0.000145785	0.107866	321.052
673.5000	7.86598	0.000138469	0.107655	321.161
673.0000	7.82436	0.000136135	0.108944	321.274
672.5000	7.80763	0.000127986	0.110256	321.399
672.0000	7.95069	0.00014701	0.110035	321.522
671.5000	7.70581	0.00012795	0.110454	321.644
671.0000	7.68938	0.000140387	0.110512	321.784
670.5000	7.78316	0.000124545	0.110987	321.91
670.0000	7.41708	0.000120516	0.110404	322.043
669.5000	7.45305	0.000100521	0.109915	322.181
669.0000	7.60572	9.79923E-005	0.1103	322.324
668.5000	7.74047	0.000103946	0.110463	322.473
668.0000	7.623	9.11187E-005	0.109973	322.65
667.5000	7.26614	8.81923E-005	0.109806	322.815
667.0000	7.11777	8.14767E-005	0.110043	322.97
666.5000	7.06779	7.28079E-005	0.110386	323.1
666.0000	6.83579	5.48527E-005	0.110625	323.214
665.5000	7.07509	5.55863E-005	0.111697	323.322
665.0000	7.21223	6.9456E-005	0.111906	323.407
664.5000	7.31471	3.80809E-005	0.112094	323.471
664.0000	7.46538	1.04817E-005	0.112541	323.518
663.5000	7.67657	2.52991E-005	0.112763	323.56
663.0000	7.77098	2.41472E-005	0.112726	323.58
662.5000	7.7349	5.8359E-006	0.112782	323.586
662.0000	8.11046	-6.99374E-006	0.113847	323.562
661.5000	8.28692	-1.4089E-005	0.114098	323.521
661.0000	8.05733	-3.30957E-005	0.113293	323.435
660.5000	8.09922	-2.64414E-005	0.1129	323.322
660.0000	8.23124	-2.43639E-005	0.113834	323.169
659.5000	7.88416	-3.68352E-005	0.11458	322.99
659.0000	8.14031	-3.7411E-005	0.114717	322.781
658.5000	8.60012	-4.99862E-005	0.115372	322.551
658.0000	8.73772	-7.04995E-005	0.116127	322.338
657.5000	8.81429	-9.13151E-005	0.11729	322.103
657.0000	8.82344	-0.000131984	0.11826	321.908
656.5000	8.99879	-0.000120738	0.119091	321.726
656.0000	8.84161	-0.000137339	0.120571	321.575
655.5000	8.7897	-0.00013314	0.122235	321.447
655.0000	8.72021	-0.000150702	0.123433	321.363
654.5000	8.60939	-0.00016149	0.123994	321.299
654.0000	8.85012	-0.000140865	0.124561	321.267
653.5000	8.97538	-0.00014242	0.1256	321.28
653.0000	8.55746	-0.000158311	0.127376	321.333
652.5000	8.84123	-0.000159849	0.129556	321.423
652.0000	8.83838	-0.00018388	0.131007	321.541
651.5000	8.76185	-0.000200449	0.132066	321.7
651.0000	9.02296	-0.00023572	0.13348	321.895
650.5000	8.96542	-0.000236062	0.134354	322.121
650.0000	8.69386	-0.000260796	0.134799	322.346
649.5000	8.94913	-0.000250134	0.135033	322.572
649.0000	9.0218	-0.000243573	0.135458	322.792
648.5000	8.7805	-0.000268215	0.135689	323.012
648.0000	8.72155	-0.000254473	0.135323	323.194
647.5000	8.8688	-0.000241337	0.134697	323.341
647.0000	8.59518	-0.000241738	0.13455	323.459
646.5000	8.94425	-0.00027002	0.134946	323.558
646.0000	9.22003	-0.000246347	0.136007	323.62
645.5000	9.00931	-0.000311835	0.135969	323.654
645.0000	9.09138	-0.000320593	0.136105	323.651
644.5000	9.27665	-0.000350814	0.136177	323.627
644.0000	9.43041	-0.000363524	0.136716	323.594
643.5000	10.0281	-0.000366827	0.137342	323.553
643.0000	9.8936	-0.00038472	0.13811	323.51
642.5000	10.3067	-0.000391626	0.138658	323.44
642.0000	10.6781	-0.000401133	0.139112	323.374
641.5000	10.6991	-0.000410991	0.139745	323.297
641.0000	10.9852	-0.000452049	0.140474	323.223
640.5000	11.0294	-0.000471499	0.141298	323.149
640.0000	11.4009	-0.000474189	0.143141	323.085
639.5000	11.3581	-0.000521984	0.145174	323.014
639.0000	11.6392	-0.000554992	0.146024	322.95
638.5000	11.5509	-0.000549293	0.146499	322.898
638.0000	11.6318	-0.000566736	0.147436	322.853
637.5000	11.7672	-0.000554491	0.149487	322.825
637.0000	12.0308	-0.000578813	0.150958	322.819
636.5000	12.3587	-0.000594242	0.15274	322.83
636.0000	12.2181	-0.000630024	0.154406	322.836
635.5000	11.8771	-0.000658814	0.155677	322.846
635.0000	12.0466	-0.000695677	0.15675	322.859
634.5000	12.379	-0.000688133	0.158092	322.877
634.0000	12.0458	-0.000723573	0.159429	322.897
633.5000	12.195	-0.000731645	0.160744	322.918
633.0000	12.0812	-0.000733482	0.161938	322.942
632.5000	11.9267	-0.00075686	0.16336	322.959
632.0000	12.1183	-0.000800166	0.164028	322.954
631.5000	12.2195	-0.000842941	0.165211	322.964
631.0000	12.4437	-0.000837865	0.16617	322.976
630.5000	12.2043	-0.000872183	0.167734	322.989
630.0000	12.3669	-0.00091791	0.170612	322.988
629.5000	12.6058	-0.000924191	0.172089	322.993
629.0000	12.6558	-0.000972713	0.173031	323.004
628.5000	12.5442	-0.000985019	0.17372	323.015
628.0000	12.4607	-0.000996079	0.174614	323.041
627.5000	12.603	-0.00100447	0.175765	323.067
627.0000	12.7209	-0.00101993	0.177563	323.125
626.5000	12.5993	-0.00103702	0.178843	323.196
626.0000	12.6027	-0.00107665	0.180848	323.3
625.5000	12.9184	-0.00108116	0.182916	323.412
625.0000	13.1489	-0.00110201	0.184589	323.544
624.5000	13.6283	-0.00111046	0.18661	323.694
624.0000	13.501	-0.0011406	0.188805	323.868
623.5000	13.7732	-0.00114177	0.190235	324.047
623.0000	13.868	-0.00114602	0.191451	324.244
622.5000	14.0816	-0.00116371	0.193324	324.459
622.0000	14.3533	-0.0011858	0.195147	324.669
621.5000	14.4311	-0.00119638	0.196481	324.903
621.0000	14.1863	-0.00121426	0.198354	325.14
620.5000	14.4272	-0.00119588	0.200023	325.383
620.0000	14.2361	-0.00120025	0.202312	325.657
619.5000	14.1948	-0.0012352	0.204939	325.977
619.0000	14.885	-0.00127688	0.207864	326.305
618.5000	15.3707	-0.00128206	0.209162	326.631
618.0000	15.3525	-0.00128692	0.20985	326.942
617.5000	15.2068	-0.0013151	0.211117	327.25
617.0000	15.2256	-0.00134349	0.213179	327.563
616.5000	15.116	-0.00136873	0.21563	327.861
616.0000	15.3463	-0.00138112	0.217238	328.149
615.5000	15.2229	-0.00140351	0.219631	328.445
615.0000	15.2775	-0.00144676	0.222154	328.73
614.5000	15.2363	-0.00148325	0.224172	329.011
614.0000	15.2932	-0.00152617	0.225863	329.29
613.5000	15.4098	-0.00154608	0.227562	329.573
613.0000	15.3882	-0.00158048	0.230195	329.881
612.5000	15.4296	-0.00162408	0.232567	330.167
612.0000	15.9869	-0.00162027	0.23483	330.432
611.5000	15.895	-0.00165975	0.236819	330.696
611.0000	15.2237	-0.00169247	0.238544	330.974
610.5000	14.8654	-0.00173371	0.240999	331.248
610.0000	14.6011	-0.00177503	0.243615	331.489
609.5000	14.8298	-0.00181252	0.244766	331.745
609.0000	14.8794	-0.00181948	0.246403	331.994
608.5000	14.7429	-0.00186521	0.248592	332.259
608.0000	14.3779	-0.00188646	0.251252	332.515
607.5000	14.4384	-0.00192783	0.253517	332.761
607.0000	14.4712	-0.00197717	0.255825	333.041
606.5000	14.3088	-0.00199729	0.259527	333.317
606.0000	14.353	-0.00200664	0.262829	333.595
605.5000	14.3235	-0.00204083	0.266213	333.878
605.0000	14.5755	-0.00208463	0.268868	334.157
604.5000	14.4364	-0.00213729	0.271413	334.424
604.0000	14.5629	-0.00218282	0.274622	334.701
603.5000	14.8486	-0.00223698	0.278026	334.986
603.0000	14.729	-0.00226171	0.280999	335.255
602.5000	14.8501	-0.00230045	0.284299	335.538
602.0000	14.7131	-0.0023343	0.288017	335.829
601.5000	14.3606	-0.00238654	0.293574	336.136
601.0000	13.9989	-0.00245137	0.298557	336.452
600.5000	13.8681	-0.00251884	0.302166	336.773
600.0000	13.6852	-0.00257518	0.306702	337.095
599.5000	13.2885	-0.00266191	0.311501	337.42
599.0000	13.123	-0.00270673	0.316171	337.756
598.5000	12.7599	-0.00278463	0.321368	338.094
598.0000	12.2198	-0.00284442	0.326423	338.428
597.5000	11.6612	-0.00292186	0.331586	338.774
597.0000	11.0718	-0.00298996	0.337321	339.154
596.5000	10.3559	-0.00305294	0.343086	339.523
596.0000	9.78516	-0.00312091	0.348586	339.898
595.5000	8.74526	-0.0032133	0.354541	340.289
595.0000	8.33762	-0.00325	0.360415	340.677
594.5000	7.71108	-0.00331329	0.367605	341.116
594.0000	6.95754	-0.00338825	0.375235	341.599
593.5000	6.1722	-0.00348924	0.382046	342.074
593.0000	5.01112	-0.00358725	0.389383	342.577
592.5000	4.39458	-0.00365864	0.39763	343.105
592.0000	3.29866	-0.00372106	0.404943	343.645
591.5000	2.50391	-0.00376571	0.411271	344.167
591.0000	1.50683	-0.00385607	0.418615	344.736
590.5000	0.365617	-0.00393782	0.425672	345.33
590.0000	-0.431853	-0.00399927	0.432907	345.968
589.5000	-1.5112	-0.00406768	0.440005	346.613
589.0000	-2.70313	-0.00414996	0.448039	347.261
588.5000	-3.68214	-0.0042262	0.45576	347.954
588.0000	-5.32664	-0.00430824	0.464021	348.694
587.5000	-6.80718	-0.00439979	0.472469	349.47
587.0000	-8.52345	-0.00450934	0.480959	350.287
586.5000	-10.4691	-0.00457448	0.488427	351.049
586.0000	-11.752	-0.00466009	0.495769	351.807
585.5000	-12.6944	-0.00469883	0.503302	352.563
585.0000	-14.2186	-0.00477409	0.511683	353.351
584.5000	-15.8957	-0.00483456	0.519595	354.1
584.0000	-17.5363	-0.00491554	0.528228	354.907
583.5000	-19.0235	-0.00500913	0.53673	355.717
583.0000	-20.9739	-0.00511234	0.545982	356.558
582.5000	-22.7081	-0.0051752	0.55514	357.401
582.0000	-24.1762	-0.00522647	0.563987	358.194
581.5000	-25.9774	-0.00531875	0.572552	359.007
581.0000	-27.5622	-0.00542077	0.580829	359.814
580.5000	-29.0786	-0.00550209	0.588331	360.586
580.0000	-30.3733	-0.00552166	0.595716	361.302
579.5000	-31.5784	-0.00560017	0.602644	361.991
579.0000	-32.7737	-0.00564671	0.609874	362.64
578.5000	-34.2517	-0.00568446	0.617287	363.257
578.0000	-35.0601	-0.00575156	0.624798	363.874
577.5000	-36.1363	-0.00579628	0.631029	364.478
577.0000	-37.0761	-0.00584667	0.636883	365.007
576.5000	-37.3643	-0.00585368	0.642453	365.536
576.0000	-37.9358	-0.00589261	0.647669	366
575.5000	-38.2046	-0.0058571	0.65286	366.426
575.0000	-38.2816	-0.00586486	0.656496	366.781
574.5000	-38.3009	-0.00587626	0.660256	367.117
574.0000	-38.3215	-0.00590391	0.663611	367.397
573.5000	-38.3018	-0.005901	0.666634	367.636
573.0000	-38.3398	-0.00587258	0.66973	367.851
572.5000	-37.755	-0.00582743	0.671861	367.991
572.0000	-37.3861	-0.00578539	0.675488	368.128
571.5000	-37.0444	-0.00576098	0.678158	368.223
571.0000	-36.5784	-0.00573108	0.680476	368.272
570.5000	-35.8382	-0.00572093	0.681994	368.296
570.0000	-35.5321	-0.00571295	0.682142	368.292
569.5000	-35.1644	-0.00565286	0.682968	368.23
569.0000	-34.5157	-0.00561255	0.68417	368.128
568.5000	-34.0968	-0.00559799	0.684611	368.013
568.0000	-33.1211	-0.00552341	0.684109	367.838
567.5000	-32.5249	-0.00549135	0.683662	367.644
567.0000	-32.2523	-0.00545342	0.683194	367.471
566.5000	-31.9157	-0.0054234	0.683071	367.261
566.0000	-31.1843	-0.0053667	0.682258	367.026
565.5000	-30.5019	-0.00535027	0.680813	366.815
565.0000	-29.8697	-0.00532045	0.68006	366.564
564.5000	-29.5046	-0.00529878	0.679828	366.328
564.0000	-29.181	-0.00527679	0.679238	366.09
563.5000	-28.6127	-0.00525584	0.678484	365.846
563.0000	-27.9373	-0.00523358	0.677822	365.626
562.5000	-27.7281	-0.00521097	0.677204	365.407
562.0000	-27.1311	-0.00516636	0.677366	365.206
561.5000	-27.0262	-0.00513335	0.677758	364.995
561.0000	-26.4959	-0.00510805	0.677648	364.806
560.5000	-26.2331	-0.00506326	0.677613	364.641
560.0000	-25.8082	-0.00511058	0.6779	364.519
559.5000	-25.9325	-0.00511352	0.678297	364.41
559.0000	-25.8654	-0.0051252	0.678863	364.327
558.5000	-25.9571	-0.0051169	0.679953	364.277
558.0000	-26.2182	-0.00512012	0.681399	364.26
557.5000	-26.3721	-0.00513697	0.683166	364.267
557.0000	-26.7923	-0.00511926	0.685572	364.3
556.5000	-26.843	-0.00514839	0.687753	364.373
556.0000	-27.182	-0.00514374	0.689857	364.49
555.5000	-27.9854	-0.00522238	0.692486	364.655
555.0000	-28.7753	-0.00525754	0.695519	364.837
554.5000	-29.3573	-0.00527797	0.698671	365.049
554.0000	-29.8517	-0.00533662	0.70167	365.283
553.5000	-30.5239	-0.00535014	0.704667	365.505
553.0000	-31.4398	-0.005394	0.708038	365.793
552.5000	-32.7325	-0.00546037	0.712252	366.116
552.0000	-33.5735	-0.00547963	0.716766	366.456
551.5000	-34.3517	-0.00548649	0.721471	366.814
551.0000	-35.3905	-0.00552191	0.726438	367.236
550.5000	-36.0021	-0.00554333	0.732037	367.666
550.0000	-37.0403	-0.00561919	0.738319	368.159
549.5000	-37.8401	-0.00565151	0.744119	368.636
549.0000	-38.4724	-0.00564688	0.750116	369.142
548.5000	-39.4854	-0.00570704	0.755948	369.7
548.0000	-40.8683	-0.00575558	0.763021	370.273
547.5000	-41.5447	-0.00580309	0.769472	370.853
547.0000	-42.2873	-0.00586782	0.776182	371.46
546.5000	-43.7301	-0.0058661	0.782598	372.069
546.0000	-44.749	-0.00591991	0.789639	372.711
545.5000	-45.4019	-0.00593651	0.796692	373.356
545.0000	-45.4873	-0.00594271	0.803404	373.997
544.5000	-46.0777	-0.00598981	0.80981	374.62
544.0000	-46.6292	-0.00602216	0.816465	375.256
543.5000	-47.0395	-0.00606346	0.823157	375.868
543.0000	-47.4484	-0.00608875	0.830248	376.473
542.5000	-47.8385	-0.006142	0.836908	377.064
542.0000	-48.2738	-0.00616977	0.842901	377.64
541.5000	-48.8804	-0.00618929	0.848633	378.217
541.0000	-49.5227	-0.00625444	0.854472	378.753
540.5000	-50.3441	-0.00630238	0.860356	379.281
540.0000	-50.3455	-0.006298	0.865646	379.762
539.5000	-50.1912	-0.0062852	0.869914	380.198
539.0000	-50.3909	-0.00626554	0.874798	380.64
538.5000	-49.9451	-0.00623892	0.879655	381.049
538.0000	-49.0416	-0.00622126	0.883614	381.375
537.5000	-48.6576	-0.00625619	0.88713	381.678
537.0000	-48.4095	-0.0062666	0.890419	381.925
536.5000	-47.8118	-0.00628243	0.894091	382.134
536.0000	-47.2726	-0.00626377	0.896948	382.32
535.5000	-46.1743	-0.00622823	0.898899	382.457
535.0000	-45.7123	-0.00618862	0.900748	382.568
534.5000	-44.484	-0.00614272	0.90265	382.603
534.0000	-43.4833	-0.00608882	0.904091	382.629
533.5000	-41.8316	-0.00606394	0.904926	382.606
533.0000	-40.1488	-0.00597941	0.905062	382.548
532.5000	-38.7926	-0.00592008	0.904961	382.476
532.0000	-36.8303	-0.00585185	0.905691	382.379
531.5000	-35.5247	-0.00580143	0.906353	382.255
531.0000	-34.1365	-0.00575541	0.906642	382.061
530.5000	-32.7031	-0.00574575	0.906312	381.85
530.0000	-31.0594	-0.00570474	0.905799	381.604
529.5000	-30.272	-0.00565002	0.905574	381.358
529.0000	-29.1923	-0.00557286	0.905062	381.092
528.5000	-28.4545	-0.00551488	0.904398	380.834
528.0000	-27.1189	-0.00545804	0.903399	380.585
527.5000	-26.2311	-0.00539383	0.901952	380.289
527.0000	-25.0278	-0.00532532	0.900689	379.967
526.5000	-23.7034	-0.00528718	0.899461	379.639
526.0000	-22.7817	-0.00523578	0.897868	379.318
525.5000	-20.9522	-0.0051791	0.896486	378.988
525.0000	-19.9201	-0.00513233	0.895098	378.67
524.5000	-18.961	-0.00510513	0.894665	378.369
524.0000	-18.2027	-0.00509726	0.894104	378.075
523.5000	-17.6627	-0.00507601	0.893115	377.785
523.0000	-16.3062	-0.00500611	0.892146	377.498
522.5000	-14.994	-0.00492071	0.891386	377.266
522.0000	-14.0708	-0.00485754	0.89056	377.024
521.5000	-13.1671	-0.00481835	0.889888	376.805
521.0000	-12.0627	-0.00473861	0.889468	376.579
520.5000	-11.1788	-0.00469025	0.888861	376.384
520.0000	-9.93324	-0.00464275	0.887628	376.193
519.5000	-9.0542	-0.00460884	0.887398	375.999
519.0000	-8.02728	-0.00460595	0.887887	375.843
518.5000	-7.66768	-0.00458264	0.888205	375.739
518.0000	-6.81757	-0.00454929	0.888907	375.656
517.5000	-5.93908	-0.00454889	0.889697	375.597
517.0000	-4.95664	-0.00449267	0.890738	375.534
516.5000	-4.04535	-0.00446848	0.891856	375.476
516.0000	-2.9429	-0.00442578	0.892542	375.442
515.5000	-2.04213	-0.00436827	0.893004	375.426
515.0000	-1.0243	-0.00431099	0.893811	375.415
514.5000	-0.163102	-0.00428968	0.894803	375.403
514.0000	0.822567	-0.00428291	0.896105	375.389
513.5000	1.69528	-0.00425711	0.897346	375.378
513.0000	3.06912	-0.00421796	0.89816	375.352
512.5000	4.5426	-0.00419551	0.899157	375.353
512.0000	5.83961	-0.00414568	0.900697	375.321
511.5000	6.66266	-0.00413101	0.902121	375.295
511.0000	7.89683	-0.00405558	0.90249	375.224
510.5000	9.38881	-0.00401946	0.902528	375.123
510.0000	11.0998	-0.00399273	0.90255	374.962
509.5000	12.7081	-0.00393848	0.902639	374.753
509.0000	13.6457	-0.00389236	0.902578	374.532
508.5000	14.4409	-0.0038715	0.902016	374.305
508.0000	15.9944	-0.00380982	0.901102	374.053
507.5000	17.4964	-0.00377206	0.899362	373.773
507.0000	18.929	-0.00375106	0.89751	373.467
506.5000	20.1666	-0.0037026	0.895379	373.143
506.0000	21.1987	-0.00366713	0.893461	372.794
505.5000	22.476	-0.00363376	0.89103	372.398
505.0000	24.0146	-0.00356722	0.888264	371.978
504.5000	25.2777	-0.0035296	0.884632	371.448
504.0000	27.0699	-0.00352951	0.88099	370.889
503.5000	28.6785	-0.00347018	0.87652	370.288
503.0000	30.169	-0.00343976	0.871584	369.607
502.5000	31.7658	-0.00340901	0.866981	368.955
502.0000	33.0178	-0.00334648	0.86186	368.223
501.5000	33.9888	-0.00331024	0.856402	367.455
501.0000	34.6124	-0.00330405	0.849936	366.565
500.5000	36.0383	-0.00323187	0.843061	365.537
500.0000	37.7192	-0.00316784	0.83637	364.357
499.5000	38.9935	-0.00311338	0.82919	363.025
499.0000	40.1505	-0.00306821	0.822055	361.485
498.5000	40.981	-0.00300349	0.814752	359.925
498.0000	41.8325	-0.00298576	0.808275	358.414
497.5000	42.7858	-0.00294219	0.801048	357.004
497.0000	43.5069	-0.00290729	0.794211	355.835
496.5000	44.358	-0.00286761	0.786641	354.716
496.0000	45.1379	-0.00277785	0.778967	353.672
495.5000	45.6193	-0.00272622	0.77035	352.581
495.0000	46.2179	-0.00268003	0.762644	351.544
494.5000	46.8089	-0.00260301	0.754917	350.531
494.0000	46.9463	-0.0025742	0.747709	349.601
493.5000	47.2557	-0.00250485	0.740196	348.646
493.0000	47.6086	-0.0024844	0.732631	347.784
492.5000	48.4117	-0.00241436	0.725095	346.908
492.0000	48.548	-0.00238717	0.716578	345.996
491.5000	48.3718	-0.00235312	0.708798	345.224
491.0000	48.1551	-0.00229809	0.701772	344.529
490.5000	48.2053	-0.00225414	0.694292	343.853
490.0000	48.2187	-0.00221163	0.685828	343.111
489.5000	48.3588	-0.00214653	0.677266	342.216
489.0000	48.15	-0.00208098	0.668873	341.032
488.5000	47.9656	-0.00204389	0.661123	339.809
488.0000	48.167	-0.00201677	0.653467	338.517
487.5000	47.9356	-0.00197761	0.647373	337.17
487.0000	47.8462	-0.00191564	0.64196	335.944
486.5000	47.3745	-0.00188208	0.636852	334.825
486.0000	46.9187	-0.00183905	0.631581	333.92
485.5000	46.9541	-0.00182921	0.626619	333.136
485.0000	46.843	-0.00179052	0.621345	332.381
484.5000	46.3919	-0.00173018	0.616348	331.694
484.0000	45.9811	-0.00169561	0.6108	331.047
483.5000	45.5932	-0.00166929	0.605787	330.485
483.0000	45.0904	-0.00164162	0.599997	329.944
482.5000	44.8594	-0.00164433	0.594988	329.493
482.0000	44.8444	-0.00164458	0.589743	329.087
481.5000	44.4576	-0.00161091	0.584798	328.708
481.0000	43.9675	-0.00161973	0.580156	328.325
480.5000	43.8198	-0.00160968	0.574609	327.833
480.0000	43.5042	-0.00161532	0.568388	327
479.5000	43.0923	-0.00158984	0.563595	325.958
479.0000	42.8464	-0.00156223	0.559417	325.068
478.5000	42.5543	-0.00155935	0.555473	324.508
478.0000	42.4102	-0.00152514	0.549911	323.933
477.5000	42.4573	-0.00149811	0.544106	323.233
477.0000	41.9371	-0.00148041	0.537621	322.305
476.5000	41.4592	-0.00147063	0.530885	321.033
476.0000	41.2786	-0.00144341	0.52452	319.648
475.5000	41.0784	-0.00141905	0.518007	318.125
475.0000	41.1258	-0.00139506	0.511603	316.448
474.5000	41.1587	-0.00134402	0.505833	314.675
474.0000	41.0438	-0.00131652	0.500768	312.804
473.5000	40.6652	-0.00127713	0.49729	310.955
473.0000	40.198	-0.00127043	0.494319	309.489
472.5000	39.8437	-0.00122511	0.48989	308.433
472.0000	39.452	-0.00117669	0.486507	307.853
471.5000	38.8391	-0.00114316	0.482052	307.673
471.0000	38.4214	-0.00114589	0.476919	307.566
470.5000	38.2849	-0.00112197	0.470248	307.141
470.0000	37.8856	-0.00112712	0.464159	306.417
469.5000	37.4217	-0.00110125	0.458972	305.508
469.0000	37.1219	-0.0010589	0.454453	304.543
468.5000	37.0032	-0.0010187	0.450115	303.778
468.0000	36.8047	-0.000975516	0.445733	303.307
467.5000	36.475	-0.00095344	0.441751	303.107
467.0000	35.9197	-0.000923463	0.438236	303.131
466.5000	35.575	-0.000911667	0.434297	303.37
466.0000	35.2943	-0.000890855	0.429309	303.836
465.5000	35.2596	-0.000840261	0.422623	304.365
465.0000	34.8888	-0.000803252	0.414124	304.654
464.5000	34.4609	-0.000762592	0.405812	304.454
464.0000	34.3387	-0.000723665	0.399774	304.004
463.5000	34.0833	-0.000711507	0.394417	303.513
463.0000	33.7475	-0.000689568	0.389568	303.097
462.5000	33.4572	-0.000655951	0.384359	302.796
462.0000	33.2208	-0.000590008	0.379502	302.667
461.5000	32.7746	-0.000563266	0.375253	302.684
461.0000	32.4352	-0.000547049	0.37051	302.784
460.5000	32.1059	-0.000518879	0.364804	302.865
460.0000	31.5454	-0.00049165	0.359283	302.843
459.5000	31.0733	-0.000482251	0.353585	302.69
459.0000	30.8876	-0.000459421	0.347333	302.315
458.5000	30.2758	-0.000424961	0.341874	301.749
458.0000	29.9763	-0.000397436	0.337725	301.167
457.5000	29.5305	-0.0003787	0.3338	300.698
457.0000	29.0186	-0.00035987	0.328922	300.223
456.5000	28.6502	-0.000336877	0.323738	299.54
456.0000	28.1625	-0.000323794	0.319215	298.774
455.5000	27.6973	-0.000322342	0.3156	298.179
455.0000	27.3575	-0.000282132	0.311698	297.885
454.5000	26.8163	-0.000239963	0.30736	297.661
454.0000	26.2844	-0.000230764	0.30332	297.399
453.5000	25.9542	-0.000212074	0.299251	297.112
453.0000	25.6827	-0.000199603	0.29526	296.824
452.5000	25.1709	-0.000164713	0.291542	296.542
452.0000	24.8249	-0.000152017	0.288076	296.233
451.5000	24.6291	-0.000141901	0.284514	295.903
451.0000	24.3969	-0.000113392	0.281636	295.622
450.5000	24.1322	-8.48816E-005	0.279159	295.5
450.0000	23.7287	-7.12697E-005	0.276232	295.501
449.5000	23.2419	-4.18546E-005	0.2725	295.413
449.0000	23.108	-3.82374E-005	0.269495	295.23
448.5000	22.8891	-4.05931E-006	0.267877	295.182
448.0000	22.49	3.03054E-005	0.266014	295.394
447.5000	22.2722	2.76279E-005	0.262475	295.63
447.0000	22.1013	5.83565E-005	0.257984	295.58
446.5000	21.7902	6.04809E-005	0.254327	295.316
446.0000	21.6709	7.93591E-005	0.251484	294.957
445.5000	21.4408	0.000100725	0.248703	294.556
445.0000	21.2076	0.000109233	0.245571	294.094
444.5000	20.8825	0.00013483	0.242831	293.615
444.0000	20.8437	0.000156146	0.240183	293.164
443.5000	20.4245	0.000183993	0.237439	292.745
443.0000	20.104	0.000196512	0.234751	292.415
442.5000	19.9023	0.000219214	0.231795	292.115
442.0000	19.6357	0.0002341	0.229331	291.86
441.5000	19.4963	0.000240081	0.226868	291.584
441.0000	19.1562	0.000262554	0.224896	291.345
440.5000	18.9685	0.000282083	0.222752	291.101
440.0000	18.7638	0.00028345	0.220487	290.857
439.5000	18.5962	0.000294857	0.218341	290.623
439.0000	18.2921	0.000317132	0.216077	290.363
438.5000	17.9514	0.000335843	0.214267	290.091
438.0000	17.7288	0.000367228	0.211812	289.822
437.5000	17.341	0.000373572	0.208553	289.583
437.0000	17.2097	0.00038341	0.205321	289.396
436.5000	16.8008	0.000383483	0.202933	289.279
436.0000	16.3955	0.000379601	0.2007	289.166
435.5000	16.1146	0.000410478	0.198446	289.044
435.0000	15.8888	0.000423685	0.196119	288.876
434.5000	15.5139	0.000443234	0.19438	288.67
434.0000	15.5808	0.000465568	0.192483	288.449
433.5000	15.3051	0.00048036	0.190582	288.237
433.0000	15.2406	0.000485018	0.18856	288.001
432.5000	14.9079	0.000503104	0.18667	287.784
432.0000	14.6618	0.000526026	0.184499	287.55
431.5000	14.1938	0.000540591	0.182409	287.312
431.0000	14.0758	0.000577072	0.180718	287.094
430.5000	13.8228	0.000591492	0.178655	286.876
430.0000	13.6136	0.000602523	0.177242	286.678
429.5000	13.679	0.000616067	0.176116	286.483
429.0000	13.733	0.000640312	0.174998	286.267
428.5000	13.3856	0.000642522	0.174336	286.044
428.0000	13.3612	0.000685277	0.173177	285.816
427.5000	13.2419	0.00068784	0.171969	285.616
427.0000	13.0321	0.000678089	0.170591	285.396
426.5000	12.906	0.000678567	0.16919	285.153
426.0000	12.4586	0.0006744	0.167911	284.88
425.5000	12.1186	0.000672417	0.167154	284.573
425.0000	12.0907	0.000678726	0.166272	284.269
424.5000	11.853	0.000677388	0.165166	284.029
424.0000	11.5773	0.000670592	0.164121	283.854
423.5000	11.2859	0.000671816	0.163153	283.72
423.0000	11.3072	0.000660313	0.162422	283.596
422.5000	11.4158	0.000654678	0.161798	283.484
422.0000	11.3114	0.000661277	0.161415	283.383
421.5000	10.8548	0.000654442	0.160325	283.276
421.0000	10.3991	0.000652814	0.159745	283.167
420.5000	10.1746	0.000658311	0.15899	283.075
420.0000	10.1292	0.000651135	0.158308	282.983
419.5000	9.84662	0.000638235	0.157877	282.892
419.0000	9.65924	0.000646472	0.1575	282.808
418.5000	9.62225	0.000665004	0.157147	282.737
418.0000	9.52857	0.000683074	0.157203	282.704
417.5000	9.48165	0.00068625	0.157064	282.714
417.0000	9.28427	0.000685566	0.15646	282.763
416.5000	9.22235	0.000693387	0.156282	282.795
416.0000	9.0074	0.000701427	0.156303	282.772
415.5000	9.0906	0.000702347	0.1566	282.714
415.0000	8.96804	0.000693751	0.156506	282.647
414.5000	8.83635	0.000696646	0.156382	282.574
414.0000	8.65053	0.000688995	0.156493	282.509
413.5000	8.54745	0.000682153	0.156671	282.447
413.0000	8.68602	0.000688577	0.15692	282.396
412.5000	8.74722	0.000696475	0.157218	282.38
412.0000	8.62106	0.000687803	0.157473	282.359
411.5000	8.79468	0.000694222	0.157629	282.356
411.0000	8.74184	0.000696593	0.157829	282.355
410.5000	8.77138	0.000696651	0.157863	282.36
410.0000	8.63683	0.000691718	0.158024	282.391
409.5000	8.79079	0.000686592	0.157924	282.422
409.0000	8.79033	0.000688543	0.157917	282.46
408.5000	8.84539	0.000689867	0.15807	282.49
408.0000	8.82473	0.000695193	0.158469	282.52
407.5000	9.08738	0.000697615	0.159035	282.532
407.0000	9.0278	0.000695842	0.159478	282.53
406.5000	9.11996	0.000704458	0.159436	282.517
406.0000	9.12366	0.000701681	0.159779	282.5
405.5000	9.07656	0.0007077	0.159916	282.448
405.0000	9.13007	0.000714783	0.160488	282.377
404.5000	9.0328	0.000723454	0.160873	282.273
404.0000	8.9958	0.000714865	0.161423	282.137
403.5000	9.16116	0.000734749	0.162054	281.982
403.0000	9.14169	0.000739261	0.162605	281.827
402.5000	9.30585	0.000735561	0.163413	281.673
402.0000	9.3486	0.000734089	0.164382	281.543
401.5000	9.46702	0.000729509	0.165707	281.414
401.0000	9.4027	0.000721734	0.167045	281.313
400.5000	9.48044	0.000718873	0.168129	281.248
400.0000	9.4567	0.000702731	0.168923	281.213
399.5000	9.39392	0.000700206	0.16939	281.191
399.0000	9.56706	0.000706093	0.17044	281.203
398.5000	9.49051	0.000709178	0.171554	281.231
398.0000	9.60288	0.000701292	0.172738	281.283
397.5000	9.62621	0.000702861	0.173564	281.365
397.0000	9.69261	0.00069097	0.174329	281.479
396.5000	9.8098	0.000685756	0.17527	281.638
396.0000	9.67802	0.000668582	0.176695	281.826
395.5000	9.8018	0.000672359	0.178033	282.034
395.0000	9.67568	0.000643219	0.179021	282.271
394.5000	9.69086	0.000639508	0.179549	282.526
394.0000	9.62482	0.000641146	0.180017	282.793
393.5000	9.73225	0.000633132	0.180665	283.067
393.0000	9.70754	0.000634019	0.181151	283.355
392.5000	9.70713	0.000626116	0.181939	283.604
392.0000	9.8537	0.000633952	0.182529	283.819
391.5000	9.80214	0.000613246	0.183765	284.015
391.0000	9.86348	0.00060873	0.184944	284.201
390.5000	10.0017	0.000585315	0.185833	284.375
390.0000	9.97337	0.000577949	0.186394	284.546
389.5000	10.2615	0.000585817	0.18729	284.707
389.0000	10.4312	0.000584524	0.188605	284.852
388.5000	10.4042	0.000567086	0.19002	284.988
388.0000	10.6403	0.000546038	0.191251	285.115
387.5000	10.8272	0.000549225	0.192272	285.248
387.0000	10.9985	0.000552192	0.19377	285.37
386.5000	11.2963	0.000558865	0.195603	285.477
386.0000	11.3888	0.000559131	0.197661	285.578
385.5000	11.6201	0.000538165	0.199529	285.672
385.0000	11.7566	0.000526048	0.201201	285.75
384.5000	12.0025	0.000529271	0.203133	285.821
384.0000	12.3035	0.0005428	0.20491	285.885
383.5000	12.3597	0.000539228	0.206866	285.966
383.0000	12.3709	0.000550279	0.208582	286.065
382.5000	12.3469	0.000544208	0.210418	286.162
382.0000	12.4412	0.000567178	0.212291	286.259
381.5000	12.4723	0.000548666	0.214468	286.347
381.0000	12.5213	0.000553	0.216328	286.444
380.5000	12.8924	0.000545442	0.217856	286.544
380.0000	13.09	0.000575676	0.219448	286.642
379.5000	13.0428	0.000577516	0.221041	286.744
379.0000	13.1292	0.000577773	0.222443	286.837
378.5000	13.2415	0.000577575	0.223147	286.927
378.0000	13.2961	0.000573622	0.223238	287.013
377.5000	13.4968	0.000577797	0.223608	287.115
377.0000	13.464	0.000569645	0.224141	287.184
376.5000	13.4924	0.000556481	0.224908	287.275
376.0000	13.4979	0.000551032	0.225114	287.356
375.5000	13.4393	0.000535697	0.225447	287.431
375.0000	13.5326	0.000521997	0.226325	287.499
374.5000	13.5561	0.000512622	0.227077	287.551
374.0000	13.6966	0.000503403	0.228041	287.599
373.5000	13.7307	0.000494855	0.228846	287.651
373.0000	13.7943	0.000487797	0.229733	287.714
372.5000	13.6698	0.000469242	0.230747	287.776
372.0000	13.5629	0.000445688	0.231745	287.835
371.5000	13.5291	0.000421898	0.2326	287.895
371.0000	13.6003	0.000410909	0.233532	287.971
370.5000	13.6003	0.000416195	0.234521	288.06
370.0000	13.7423	0.000402277	0.235893	288.152
369.5000	13.8581	0.00039087	0.237363	288.249
369.0000	13.7506	0.000366771	0.238496	288.343
368.5000	13.8711	0.000356015	0.239683	288.467
368.0000	13.9467	0.000343448	0.241194	288.58
367.5000	14.1281	0.000331398	0.243161	288.712
367.0000	14.1794	0.000330741	0.244912	288.845
366.5000	14.4277	0.000330404	0.246076	288.982
366.0000	14.5818	0.000337289	0.247126	289.141
365.5000	14.5354	0.000312358	0.248535	289.292
365.0000	14.5336	0.00030735	0.250203	289.432
364.5000	14.568	0.000300331	0.251421	289.572
364.0000	14.7831	0.000308681	0.252367	289.721
363.5000	14.7033	0.000299239	0.252726	289.868
363.0000	14.7823	0.00028621	0.253386	290.025
362.5000	14.7823	0.000276231	0.254313	290.17
362.0000	14.6461	0.000260973	0.255439	290.317
361.5000	14.5634	0.000230318	0.256546	290.475
361.0000	14.7718	0.00023722	0.25802	290.627
360.5000	14.694	0.000238589	0.259798	290.778
360.0000	14.6013	0.000237745	0.261386	290.919
359.5000	14.5711	0.000228633	0.262739	291.068
359.0000	14.7399	0.000228611	0.263685	291.214
358.5000	14.7231	0.00020113	0.264734	291.371
358.0000	14.8537	0.000188498	0.266029	291.515
357.5000	14.7904	0.000153478	0.267596	291.678
357.0000	15.1281	0.000155116	0.268509	291.831
356.5000	14.9727	0.000146802	0.269421	291.978
356.0000	15.1184	0.00015687	0.270675	292.121
355.5000	15.1411	0.000148629	0.27233	292.276
355.0000	15.1837	0.000153715	0.274223	292.427
354.5000	15.4853	0.000160901	0.276034	292.581
354.0000	15.717	0.000155124	0.277647	292.744
353.5000	15.7885	0.000154696	0.279094	292.892
353.0000	15.7602	0.000166615	0.281025	293.063
352.5000	15.8898	0.000148717	0.282933	293.246
352.0000	15.8837	0.000138349	0.284177	293.419
351.5000	16.0668	0.000124428	0.285067	293.58
351.0000	16.3186	0.000132346	0.285867	293.738
350.5000	16.2924	0.000123453	0.287199	293.898
350.0000	16.2453	0.000114736	0.2888	294.067
349.5000	16.1862	0.000110539	0.290287	294.249
349.0000	16.1849	0.000117809	0.291649	294.428
348.5000	16.113	0.000117745	0.293126	294.611
348.0000	16.0713	9.24458E-005	0.294739	294.788
347.5000	15.9397	7.21087E-005	0.296306	294.958
347.0000	15.8133	5.08009E-005	0.298059	295.13
346.5000	15.6238	2.37451E-005	0.299738	295.31
346.0000	15.6085	1.59072E-005	0.301294	295.484
345.5000	15.4225	-1.14577E-006	0.302933	295.669
345.0000	15.2895	-3.66091E-005	0.304719	295.864
344.5000	15.2817	-4.26478E-005	0.306065	296.022
344.0000	15.0317	-4.45459E-005	0.307585	296.195
343.5000	15.1081	-5.60121E-005	0.309424	296.37
343.0000	14.9213	-5.40479E-005	0.311414	296.553
342.5000	14.5829	-8.73998E-005	0.313291	296.743
342.0000	14.3558	-0.000109047	0.315219	296.95
341.5000	14.368	-0.000120341	0.317081	297.143
341.0000	14.4358	-0.000135983	0.31878	297.33
340.5000	14.3766	-0.000171694	0.320261	297.525
340.0000	14.2706	-0.000184982	0.321842	297.725
339.5000	14.2377	-0.000197229	0.323353	297.926
339.0000	14.2558	-0.000216163	0.324831	298.143
338.5000	14.389	-0.000222997	0.326326	298.35
338.0000	14.329	-0.000237114	0.328207	298.571
337.5000	14.2005	-0.000270637	0.329706	298.802
337.0000	14.359	-0.000284812	0.33123	299.022
336.5000	14.3683	-0.000292439	0.332766	299.236
336.0000	14.3034	-0.000315102	0.334611	299.478
335.5000	14.1519	-0.000330892	0.336068	299.71
335.0000	13.9385	-0.000349287	0.337231	299.943
334.5000	13.8857	-0.000363635	0.339134	300.207
334.0000	13.9969	-0.000373692	0.341116	300.458
333.5000	13.873	-0.000411634	0.343073	300.723
333.0000	13.7871	-0.00043829	0.344548	300.977
332.5000	13.4949	-0.000455269	0.346252	301.227
332.0000	13.7382	-0.000446363	0.348061	301.471
331.5000	13.7549	-0.000468136	0.350075	301.744
331.0000	13.8037	-0.000478758	0.352444	302.029
330.5000	13.7934	-0.000494082	0.354458	302.284
330.0000	13.5999	-0.000508099	0.356529	302.555
329.5000	13.5871	-0.000514241	0.358857	302.835
329.0000	13.3124	-0.000532218	0.361738	303.096
328.5000	12.986	-0.000552934	0.364361	303.338
328.0000	13.0114	-0.000573742	0.36666	303.566
327.5000	12.837	-0.000606841	0.368741	303.778
327.0000	12.8777	-0.000609486	0.371266	303.998
326.5000	12.7951	-0.000645577	0.37426	304.266
326.0000	12.7913	-0.000672552	0.376929	304.527
325.5000	12.9799	-0.000669597	0.379094	304.781
325.0000	12.9583	-0.000666971	0.380996	305.036
324.5000	12.9839	-0.000686973	0.383357	305.302
324.0000	13.3878	-0.000700567	0.385989	305.576
323.5000	13.2787	-0.000722985	0.388861	305.849
323.0000	13.082	-0.00074445	0.391675	306.122
322.5000	13.2362	-0.000761186	0.394015	306.387
322.0000	13.023	-0.000771843	0.396434	306.658
321.5000	13.0234	-0.000791042	0.399154	306.929
321.0000	12.9018	-0.000811559	0.401642	307.21
320.5000	12.9283	-0.000820861	0.403801	307.489
320.0000	13.0517	-0.000843466	0.405901	307.771
319.5000	13.0272	-0.000841788	0.408419	308.071
319.0000	13.1498	-0.000869495	0.411425	308.407
318.5000	13.1236	-0.000866074	0.414479	308.722
318.0000	13.2042	-0.000865671	0.417278	308.993
317.5000	13.112	-0.000887758	0.419983	309.255
317.0000	12.8639	-0.000911632	0.423163	309.544
316.5000	13.0795	-0.000917084	0.426489	309.822
316.0000	12.9066	-0.000934518	0.429706	310.123
315.5000	12.632	-0.000959939	0.432338	310.428
315.0000	12.8716	-0.000967421	0.434909	310.769
314.5000	13.0439	-0.000965606	0.43756	311.094
314.0000	13.0909	-0.000985009	0.440584	311.43
313.5000	13.1832	-0.00100311	0.443543	311.766
313.0000	13.1883	-0.00104264	0.446742	312.137
312.5000	13.4793	-0.00106515	0.449854	312.515
312.0000	13.7996	-0.00106913	0.453089	312.902
311.5000	13.9118	-0.00107654	0.456743	313.291
311.0000	14.0519	-0.00106391	0.460457	313.702
310.5000	14.0282	-0.00106968	0.464284	314.154
310.0000	14.3513	-0.00108591	0.467749	314.603
309.5000	14.5574	-0.00107506	0.471689	315.074
309.0000	14.8616	-0.00110489	0.476045	315.572
308.5000	15.1222	-0.00110508	0.480411	316.077
308.0000	15.5152	-0.0010971	0.484742	316.555
307.5000	15.938	-0.00109331	0.489705	317.085
307.0000	16.2335	-0.0010747	0.494386	317.584
306.5000	16.3977	-0.00109182	0.499817	318.127
306.0000	16.4818	-0.00109608	0.504945	318.656
305.5000	16.8034	-0.00111716	0.510526	319.238
305.0000	17.094	-0.00110725	0.515914	319.778
304.5000	17.5739	-0.0010968	0.521564	320.365
304.0000	17.9948	-0.00109339	0.527301	320.94
303.5000	18.5735	-0.00109789	0.533063	321.522
303.0000	19.1536	-0.00111885	0.538668	322.132
302.5000	19.8069	-0.00110854	0.544423	322.743
302.0000	20.4132	-0.00109057	0.55002	323.344
301.5000	21.0241	-0.00108154	0.555729	323.942
301.0000	21.5296	-0.0010839	0.561076	324.532
300.5000	22.5108	-0.00103787	0.565668	325.05
300.0000	23.0293	-0.00104056	0.571027	325.669
299.5000	23.7045	-0.00102678	0.575986	326.256
299.0000	24.5067	-0.0010225	0.581272	326.831
298.5000	25.3804	-0.00102527	0.586963	327.412
298.0000	26.1614	-0.0010074	0.591733	327.958
297.5000	26.9968	-0.000976127	0.59659	328.52
297.0000	27.7893	-0.000940211	0.601012	329.017
296.5000	28.7113	-0.000930666	0.604956	329.488
296.0000	29.5764	-0.000883826	0.608949	329.938
295.5000	30.2799	-0.000841308	0.612947	330.369
295.0000	30.7038	-0.000798235	0.616701	330.794
294.5000	31.3735	-0.000761379	0.620596	331.245
294.0000	32.1655	-0.000735331	0.624682	331.727
293.5000	32.7807	-0.000714307	0.628336	332.145
293.0000	33.3997	-0.000680974	0.632106	332.589
292.5000	34.1494	-0.000651882	0.636123	333.045
292.0000	34.522	-0.000611628	0.639937	333.484
291.5000	35.1904	-0.000551425	0.643928	333.913
291.0000	35.4862	-0.000513407	0.647769	334.342
290.5000	36.1015	-0.000467691	0.651299	334.798
290.0000	36.7369	-0.000429149	0.654698	335.234
289.5000	37.448	-0.000367489	0.657995	335.639
289.0000	38.0171	-0.000331125	0.661446	336.044
288.5000	38.5557	-0.000269378	0.665346	336.506
288.0000	39.1442	-0.000233542	0.668983	336.976
287.5000	39.4791	-0.000220748	0.672877	337.489
287.0000	40.0853	-0.000196173	0.677088	338.016
286.5000	40.4887	-0.000159178	0.681477	338.51
286.0000	41.1934	-0.000142402	0.685387	338.982
285.5000	41.7938	-0.000105995	0.689006	339.442
285.0000	42.4968	-4.689E-005	0.693108	339.947
284.5000	43.1611	-1.0596E-005	0.69719	340.432
284.0000	44.0077	2.53083E-005	0.701837	340.963
283.5000	44.7547	4.19597E-005	0.706385	341.494
283.0000	45.6505	7.57455E-005	0.710498	342.014
282.5000	46.2447	0.000126808	0.715028	342.583
282.0000	46.8022	0.000176402	0.720034	343.171
281.5000	47.3198	0.000220091	0.725071	343.758
281.0000	48.0081	0.000262859	0.730221	344.368
280.5000	48.6083	0.00030256	0.735546	345.033
280.0000	49.0606	0.000341847	0.74132	345.722
279.5000	49.7706	0.000385975	0.747592	346.435
279.0000	50.79	0.000449734	0.753672	347.137
278.5000	51.5438	0.000505007	0.759915	347.916
278.0000	52.5686	0.000543883	0.76635	348.778
277.5000	53.0292	0.000588844	0.772601	349.585
277.0000	53.6134	0.000625174	0.779962	350.472
276.5000	54.4259	0.000653423	0.787658	351.383
276.0000	54.8723	0.000665664	0.794599	352.229
275.5000	55.5325	0.00070271	0.802153	353.198
275.0000	56.4638	0.000753113	0.810367	354.223
274.5000	56.9003	0.000804511	0.819058	355.291
274.0000	57.6809	0.000819127	0.828989	356.466
273.5000	57.9384	0.000800496	0.838428	357.575
273.0000	58.5117	0.000821587	0.848417	358.775
272.5000	59.6105	0.000841885	0.858915	360.044
272.0000	60.5098	0.000843826	0.86984	361.377
271.5000	61.3911	0.000852184	0.881729	362.839
271.0000	61.9476	0.000832524	0.893222	364.289
270.5000	63.2503	0.000836882	0.90532	365.807
270.0000	63.7898	0.000840138	0.917922	367.379
269.5000	64.6341	0.000874711	0.931203	369.007
269.0000	65.5814	0.000889266	0.944343	370.64
268.5000	66.7587	0.000885172	0.958323	372.424
268.0000	67.4398	0.000889754	0.973019	374.29
267.5000	68.0816	0.000877975	0.988544	376.229
267.0000	68.1952	0.000885946	1.00544	378.326
266.5000	68.4688	0.000875439	1.02254	380.49
266.0000	68.1045	0.00083292	1.03811	382.498
265.5000	67.8806	0.000813268	1.05431	384.66
265.0000	67.7339	0.000786631	1.07199	387.003
264.5000	67.0935	0.000746919	1.08925	389.289
264.0000	65.5034	0.000682739	1.10659	391.605
263.5000	64.0646	0.000634252	1.12517	394.092
263.0000	62.7396	0.000564323	1.14226	396.397
262.5000	60.2691	0.000516814	1.16151	399.021
262.0000	57.6454	0.000409013	1.18035	401.593
261.5000	55.4838	0.000271365	1.20003	404.244
261.0000	53.1757	0.000143458	1.2192	406.832
260.5000	49.4646	5.59901E-005	1.23968	409.625
260.0000	46.1259	-0.000115023	1.2607	412.531
259.5000	42.6849	-0.000252305	1.28207	415.539
259.0000	39.3738	-0.000373762	1.30396	418.678
258.5000	35.5521	-0.0005196	1.32695	421.949
258.0000	31.6167	-0.000664673	1.35118	425.365
257.5000	29.1184	-0.000811842	1.37533	428.739
257.0000	25.0585	-0.00104032	1.40174	432.435
256.5000	21.4807	-0.00114989	1.4276	436.12
256.0000	17.788	-0.00126237	1.45588	440.179
255.5000	14.9785	-0.00145562	1.48581	444.443
255.0000	11.8788	-0.00159469	1.51725	448.918
254.5000	8.97356	-0.00173306	1.54824	453.352
254.0000	6.4786	-0.00182642	1.58035	457.977
253.5000	4.51741	-0.0018854	1.617	463.316
253.0000	1.61712	-0.00200572	1.65143	468.371
252.5000	-0.411087	-0.00214317	1.7047	476.242
252.0000	-2.39772	-0.0022763	1.7507	483.097
251.5000	-4.24787	-0.002264	1.79233	489.36
251.0000	-6.7364	-0.00246616	1.83569	495.937
250.5000	-8.49094	-0.00262119	1.88081	502.817
250.0000	-8.90927	-0.00261458	1.92514	509.65
249.5000	-10.0471	-0.00256534	1.97084	516.808
249.0000	-11.6057	-0.00261014	2.02082	524.737
248.5000	-11.7049	-0.00270759	2.07043	532.632
248.0000	-12.1332	-0.00257817	2.12482	541.336
247.5000	-13.8581	-0.00261704	2.17812	549.998
247.0000	-14.3992	-0.00267267	2.23592	559.561
246.5000	-12.3169	-0.00270794	2.29591	569.627
246.0000	-10.839	-0.00269099	2.35832	580.185
245.5000	-12.2006	-0.00269261	2.42618	591.849
245.0000	-13.8492	-0.00255987	2.49661	604.16
244.5000	-13.2777	-0.00252319	2.56972	617.176
244.0000	-13.9008	-0.00215344	2.6452	630.861
243.5000	-13.5869	-0.00199931	2.71961	644.567
243.0000	-12.3846	-0.00214795	2.79575	658.854
242.5000	-11.7391	-0.00191474	2.8815	675.273
242.0000	-10.0418	-0.00153454	2.95677	689.997
241.5000	-7.26719	-0.00145739	3.04118	706.82
241.0000	-3.30339	-0.00124292	3.11838	722.514
240.5000	-1.58727	-0.00100573	3.20342	740.161
240.0000	3.34394	-0.0010571	3.27964	756.375
239.5000	3.7031	-0.000766805	3.36658	775.299
239.0000	2.91417	-0.000718633	3.44011	791.678
238.5000	-0.310583	-0.000673038	3.51539	808.733
238.0000	3.15415	-0.000705982	3.59093	826.319
237.5000	4.34588	-0.000471239	3.65581	841.743
237.0000	7.67928	-0.000862918	3.72034	857.449
236.5000	8.99122	-0.000696975	3.78079	872.472
236.0000	7.55662	-0.000850517	3.83383	885.935
235.5000	7.97272	-0.00110359	3.88924	900.339
235.0000	6.75066	-0.00121262	3.92368	909.473
234.5000	6.95757	-0.00130823	3.9576	918.644
234.0000	10.0939	-0.00106808	3.99015	927.599
233.5000	7.04446	-0.00141776	4.02203	936.593
233.0000	5.11716	-0.0012756	4.05071	944.963
232.5000	4.20858	-0.0014661	4.07399	951.963
232.0000	-1.53164	-0.00171365	4.09636	959
231.5000	-4.05272	-0.00156659	4.11046	963.767
231.0000	-0.998882	-0.00179882	4.12264	968.238
230.5000	0.160259	-0.00197865	4.13177	971.927
230.0000	2.6882	-0.00179852	4.13766	974.754

##### Extended Information
[Comments]
Sample name	20% R-JS with DT after 72 hrs 1
Comment
User
Division
Company	Labo systeme complexes hors equilibre

[Detailed Information]
Creation date	7/7/2025 5:15 PM

Data array type	Linear data array * 4
Horizontal axis	Wavelength [nm]
Vertical axis(1)	CD [mdeg]
Vertical axis(2)	LD [dOD]
Vertical axis(3)	Abs
Vertical axis(4)	HT [V]
Start	700 nm
End	230 nm
Data interval	0.5 nm
Data points	941     

[Measurement Information]
Instrument name	CD Jasco
Model name	J-1500
Serial No.	A005261638

Detector	PM-539
Detector S/N	A0052PM539
  Lock-in amp.	X mode
  HT volt	Auto

Detector	EXPML-535
Detector S/N	A0001
  Lock-in amp.	X mode
  HT volt	Auto

Accessory	PTC-517
Accessory S/N	A001361646
  Temperature	20.00 C
  Control sonsor	Holder
  Monitor sensor	Holder
  Start Mode	Keep target temperature +/-0.10 deg C while 5 seconds

Measurement date	7/7/2025 5:15 PM

Overload detect	1
Photometric mode	CD, LD, Abs, HT
Measure range	700 - 230 nm
Data pitch	0.5 nm
CD scale	200 mdeg/1.0 dOD
FL scale	200 mdeg/1.0 dOD
D.I.T.	1 sec
Bandwidth	1.00 nm
Start mode	Immediately
Scanning speed	500 nm/min
Baseline correction	Baseline
Shutter control	Auto

Concentration	50 umol/L
Solvent	water 

