TITLE	30% R-JS new 1
DATA TYPE	
ORIGIN	JASCO
OWNER	
DATE	25/09/25
TIME	19:17:43
SPECTROMETER/DATA SYSTEM	
LOCALE	1033
RESOLUTION	
DELTAX	-0.5
XUNITS	NANOMETERS
YUNITS	CD [mdeg]
Y2UNITS	LD [dOD]
Y3UNITS	ABSORBANCE
Y4UNITS	HT [V]
FIRSTX	  700.0000
LASTX	  300.0000
NPOINTS	     801
FIRSTY	     1.79937
MAXY	   104.35302
MINY	   -34.67942
XYDATA
700.0000	1.79937	-0.000205769	-0.00927227	319.147
699.5000	1.75145	-0.000223282	-0.00993405	318.673
699.0000	1.32963	-0.000237808	-0.0091835	318.108
698.5000	1.2864	-0.000225737	-0.00855717	317.468
698.0000	1.30171	-0.000249828	-0.00425544	316.776
697.5000	1.38614	-0.000260751	-0.00343329	316.112
697.0000	1.01905	-0.000245749	-0.00492279	315.414
696.5000	1.05648	-0.000217653	-0.00474885	314.784
696.0000	1.19128	-0.000249411	-0.000778736	314.155
695.5000	1.68739	-0.000236414	0.00270069	313.63
695.0000	1.66476	-0.000222027	0.00706372	313.202
694.5000	1.6971	-0.000210877	0.0097042	312.836
694.0000	1.87524	-0.000246877	0.0107292	312.524
693.5000	2.05604	-0.000259474	0.011226	312.26
693.0000	2.01055	-0.000238092	0.0138817	312.042
692.5000	2.24059	-0.000239807	0.016539	311.83
692.0000	2.50909	-0.000226421	0.0175547	311.653
691.5000	2.67363	-0.000236962	0.0200669	311.51
691.0000	2.65478	-0.000231324	0.022231	311.423
690.5000	2.86744	-0.000243107	0.0235845	311.441
690.0000	2.75083	-0.000230418	0.0244698	311.572
689.5000	2.93187	-0.00023934	0.0266	311.808
689.0000	3.14685	-0.000261168	0.0271514	312.119
688.5000	3.37047	-0.000271039	0.0252791	312.485
688.0000	3.57948	-0.00024712	0.0235301	312.858
687.5000	3.66372	-0.000256257	0.0208451	313.22
687.0000	3.79887	-0.000263516	0.0181373	313.52
686.5000	3.65765	-0.000261751	0.0155332	313.796
686.0000	3.354	-0.000259771	0.0143922	314.042
685.5000	3.39929	-0.000231998	0.0123927	314.278
685.0000	3.23101	-0.000223277	0.0114519	314.52
684.5000	3.15073	-0.000202524	0.0105908	314.764
684.0000	2.98001	-0.000196478	0.0101848	315.033
683.5000	3.04163	-0.000169615	0.00999586	315.333
683.0000	3.01785	-0.000162272	0.00982744	315.654
682.5000	3.18258	-0.000139338	0.00779648	315.935
682.0000	3.03278	-0.000147391	0.00631073	316.154
681.5000	2.88636	-0.000161919	0.004174	316.293
681.0000	2.7041	-0.000127363	0.00218267	316.355
680.5000	2.60263	-0.000107605	0.00268232	316.362
680.0000	2.04438	-0.000104266	0.00206345	316.331
679.5000	1.96759	-0.000123489	0.0036041	316.281
679.0000	2.07904	-0.000111518	0.0042686	316.225
678.5000	1.95921	-0.000116176	0.00546198	316.173
678.0000	1.93144	-0.000138896	0.00531136	316.132
677.5000	2.02325	-0.00012549	0.00597489	316.104
677.0000	2.18064	-0.00011923	0.00670863	316.084
676.5000	2.37933	-0.000103	0.00768417	316.082
676.0000	2.38321	-0.000109146	0.00796748	316.072
675.5000	2.5659	-0.000127695	0.00824442	316.077
675.0000	2.66233	-0.000136934	0.0089398	316.078
674.5000	2.60559	-0.000132155	0.0105128	316.101
674.0000	2.75672	-0.000122577	0.0116308	316.147
673.5000	2.63315	-0.000119071	0.0112742	316.181
673.0000	2.79164	-0.000126668	0.0124935	316.221
672.5000	2.9364	-0.000126591	0.0131909	316.269
672.0000	3.02792	-0.000140477	0.0129705	316.329
671.5000	3.10365	-0.000141454	0.012681	316.394
671.0000	3.15738	-0.000171655	0.0136513	316.471
670.5000	2.9848	-0.000178267	0.013725	316.553
670.0000	3.01235	-0.000186663	0.0142456	316.634
669.5000	3.03046	-0.000177719	0.0138169	316.717
669.0000	2.9359	-0.000169459	0.0146377	316.808
668.5000	2.9633	-0.000185412	0.0137158	316.894
668.0000	2.99673	-0.000193772	0.0136327	317.016
667.5000	2.71553	-0.000174924	0.0132954	317.149
667.0000	2.6188	-0.000181934	0.0127653	317.262
666.5000	2.88203	-0.000172981	0.0129217	317.382
666.0000	2.9726	-0.000182935	0.0125637	317.5
665.5000	2.62415	-0.000197977	0.0123856	317.612
665.0000	2.70729	-0.000221991	0.0112639	317.711
664.5000	2.8858	-0.000233568	0.0115509	317.796
664.0000	2.99329	-0.000220338	0.0113851	317.856
663.5000	2.85852	-0.000216843	0.0119764	317.896
663.0000	2.91901	-0.000190318	0.0120376	317.931
662.5000	2.94026	-0.000193306	0.0112268	317.95
662.0000	2.98373	-0.000165422	0.0111153	317.958
661.5000	3.30492	-0.000165322	0.0116292	317.946
661.0000	3.47584	-0.000170613	0.0120182	317.912
660.5000	3.73117	-0.000223906	0.0122436	317.862
660.0000	3.5193	-0.000244011	0.0130157	317.787
659.5000	3.72372	-0.000237917	0.0130804	317.693
659.0000	3.54183	-0.000243991	0.0137339	317.572
658.5000	3.16786	-0.000263877	0.0133058	317.397
658.0000	3.13554	-0.000261299	0.0133454	317.203
657.5000	3.56438	-0.000241071	0.0131889	316.977
657.0000	3.49646	-0.000239197	0.0133845	316.756
656.5000	3.34939	-0.000239593	0.0139664	316.52
656.0000	3.54778	-0.000260111	0.0154777	316.298
655.5000	3.32606	-0.000292244	0.016486	316.084
655.0000	3.49724	-0.000292258	0.0168263	315.877
654.5000	3.29791	-0.00026672	0.0180505	315.704
654.0000	3.30168	-0.000275813	0.020422	315.55
653.5000	3.32526	-0.00028478	0.0219726	315.433
653.0000	3.09147	-0.000294714	0.02303	315.354
652.5000	3.13836	-0.00028656	0.0238612	315.302
652.0000	3.11868	-0.000250395	0.0254563	315.278
651.5000	3.00535	-0.000257653	0.0269247	315.295
651.0000	3.11876	-0.000290645	0.0268645	315.34
650.5000	3.38226	-0.000295785	0.0275019	315.434
650.0000	3.52904	-0.000309084	0.027562	315.562
649.5000	3.65514	-0.000298866	0.0277643	315.721
649.0000	3.57587	-0.000304782	0.0290571	315.885
648.5000	3.70459	-0.000279802	0.0293706	316.069
648.0000	3.84554	-0.000262572	0.0288987	316.264
647.5000	3.83362	-0.000238896	0.0281004	316.436
647.0000	3.90766	-0.000246548	0.0266195	316.617
646.5000	4.07416	-0.000262719	0.0260957	316.782
646.0000	4.0265	-0.000279439	0.0255604	316.906
645.5000	4.09111	-0.000299075	0.0253	317
645.0000	4.15711	-0.000287355	0.0243419	317.057
644.5000	4.43411	-0.00028421	0.0246644	317.08
644.0000	4.53749	-0.000265976	0.0241681	317.077
643.5000	4.68597	-0.000283719	0.0246193	317.059
643.0000	4.96214	-0.00025342	0.024663	317.018
642.5000	5.08562	-0.000257566	0.0252391	316.954
642.0000	4.99264	-0.000256204	0.0266477	316.88
641.5000	4.94356	-0.000259925	0.0283264	316.792
641.0000	4.86524	-0.000281033	0.0293249	316.695
640.5000	5.08082	-0.00027891	0.0302828	316.608
640.0000	5.19434	-0.000307984	0.0313945	316.502
639.5000	5.36863	-0.000327202	0.0321381	316.383
639.0000	5.09542	-0.000333575	0.0333756	316.28
638.5000	4.81128	-0.000348162	0.0349708	316.172
638.0000	4.76717	-0.000357905	0.0358535	316.071
637.5000	4.89	-0.000378378	0.0370781	315.982
637.0000	4.83345	-0.000409941	0.0383128	315.891
636.5000	4.77538	-0.000410053	0.0389329	315.821
636.0000	4.87413	-0.000424545	0.0397663	315.77
635.5000	4.86976	-0.000442775	0.0399943	315.737
635.0000	4.74273	-0.000464562	0.0406965	315.704
634.5000	4.78636	-0.000482202	0.0415494	315.679
634.0000	4.54589	-0.000464385	0.0420082	315.648
633.5000	4.53218	-0.000478568	0.0418637	315.624
633.0000	4.62934	-0.000479797	0.0423087	315.605
632.5000	4.57663	-0.000489258	0.0428256	315.585
632.0000	4.72032	-0.000517676	0.0435635	315.566
631.5000	4.63881	-0.000524876	0.0450658	315.549
631.0000	4.49311	-0.00053069	0.0462488	315.525
630.5000	4.97665	-0.000528711	0.0471652	315.493
630.0000	4.9821	-0.000534943	0.0480219	315.458
629.5000	5.2547	-0.000502981	0.0477238	315.416
629.0000	5.27133	-0.000509534	0.0485773	315.372
628.5000	5.58514	-0.000518237	0.0503565	315.346
628.0000	5.48576	-0.000549919	0.0518055	315.303
627.5000	5.56512	-0.000560242	0.0536893	315.261
627.0000	5.39618	-0.000558531	0.0557084	315.223
626.5000	5.46424	-0.000561841	0.0575942	315.193
626.0000	5.56728	-0.000604305	0.0596549	315.185
625.5000	5.68897	-0.000626542	0.0617442	315.204
625.0000	6.04598	-0.000625496	0.0638818	315.226
624.5000	6.03649	-0.000661285	0.0655565	315.271
624.0000	6.20774	-0.000644569	0.0674005	315.337
623.5000	5.99781	-0.000669996	0.0688274	315.419
623.0000	6.33903	-0.000702209	0.069756	315.514
622.5000	6.53316	-0.000730411	0.0702962	315.622
622.0000	6.3725	-0.000764531	0.0712713	315.747
621.5000	6.67554	-0.00076323	0.0732716	315.877
621.0000	6.83458	-0.000786062	0.0749339	316.031
620.5000	6.88175	-0.000788887	0.0753284	316.189
620.0000	6.91975	-0.00078004	0.0756551	316.377
619.5000	7.12503	-0.000784977	0.0774021	316.609
619.0000	7.21229	-0.000794094	0.0787738	316.857
618.5000	7.27498	-0.000814385	0.0790045	317.112
618.0000	7.56905	-0.000821381	0.0796375	317.359
617.5000	7.81443	-0.000832825	0.0805383	317.609
617.0000	8.03315	-0.000849931	0.0808785	317.868
616.5000	8.19635	-0.000860186	0.0803487	318.102
616.0000	8.39801	-0.00089523	0.0820791	318.324
615.5000	8.67872	-0.000906067	0.0827768	318.544
615.0000	8.87637	-0.000905468	0.0845337	318.764
614.5000	9.39678	-0.000900158	0.0863255	318.999
614.0000	9.7229	-0.000883834	0.0879833	319.226
613.5000	10.0678	-0.000887123	0.087978	319.453
613.0000	10.0162	-0.00092656	0.0892152	319.688
612.5000	10.127	-0.000956305	0.0908882	319.911
612.0000	10.4719	-0.000996363	0.0929635	320.119
611.5000	10.7628	-0.0010224	0.0929797	320.322
611.0000	10.884	-0.00105706	0.0934054	320.534
610.5000	11.5068	-0.00107222	0.0953562	320.748
610.0000	11.7247	-0.00108343	0.0968262	320.941
609.5000	12.0512	-0.00109899	0.0979029	321.13
609.0000	12.3725	-0.00109157	0.0999875	321.314
608.5000	12.7326	-0.00109437	0.101282	321.501
608.0000	13.0872	-0.00111957	0.102963	321.686
607.5000	13.1925	-0.0011096	0.104208	321.865
607.0000	13.4792	-0.00115565	0.105825	322.065
606.5000	13.6098	-0.00117771	0.108439	322.257
606.0000	13.8121	-0.00123612	0.11083	322.463
605.5000	14.0217	-0.00126594	0.11389	322.668
605.0000	14.6758	-0.00129622	0.115467	322.872
604.5000	15.1697	-0.00130781	0.118254	323.069
604.0000	15.7071	-0.00133003	0.121973	323.271
603.5000	16.1607	-0.00135673	0.12548	323.473
603.0000	16.4208	-0.00134744	0.128856	323.668
602.5000	17.0005	-0.00137927	0.131558	323.875
602.0000	17.2797	-0.00139881	0.134551	324.082
601.5000	17.6334	-0.00143658	0.138104	324.292
601.0000	18.1613	-0.00146645	0.141589	324.523
600.5000	18.5355	-0.00150225	0.145672	324.758
600.0000	18.9994	-0.00153492	0.149211	324.979
599.5000	19.5076	-0.00154923	0.153329	325.221
599.0000	19.8761	-0.00158234	0.157093	325.451
598.5000	20.8301	-0.00160299	0.160163	325.671
598.0000	21.7107	-0.00163804	0.164211	325.885
597.5000	22.7509	-0.00165312	0.168475	326.126
597.0000	23.3476	-0.00165102	0.172541	326.38
596.5000	24.4877	-0.00169608	0.177625	326.64
596.0000	25.4303	-0.00174575	0.180809	326.914
595.5000	26.2646	-0.0017746	0.185798	327.193
595.0000	27.1716	-0.00181981	0.191802	327.462
594.5000	28.2073	-0.00187655	0.198657	327.773
594.0000	29.4427	-0.00191419	0.204484	328.126
593.5000	30.5364	-0.00196181	0.210459	328.492
593.0000	31.6343	-0.00200584	0.216099	328.864
592.5000	32.7111	-0.0020732	0.222617	329.289
592.0000	33.3267	-0.0021298	0.230404	329.754
591.5000	34.797	-0.00220417	0.237125	330.184
591.0000	35.9791	-0.00223585	0.245136	330.675
590.5000	37.043	-0.00228881	0.251838	331.213
590.0000	38.2812	-0.00233069	0.259302	331.785
589.5000	39.4933	-0.00240626	0.266265	332.392
589.0000	40.6309	-0.00247079	0.273531	333.02
588.5000	41.8188	-0.00254499	0.283274	333.706
588.0000	43.2271	-0.00257082	0.293492	334.442
587.5000	44.503	-0.00263984	0.301885	335.24
587.0000	45.9744	-0.00270326	0.30992	336.127
586.5000	47.1607	-0.00277177	0.317734	336.978
586.0000	48.9656	-0.00284011	0.327649	337.85
585.5000	50.5847	-0.00288271	0.33742	338.731
585.0000	51.8202	-0.00293256	0.347256	339.665
584.5000	53.5396	-0.00299254	0.35682	340.575
584.0000	55.5046	-0.00303937	0.367249	341.58
583.5000	57.5879	-0.00311242	0.377656	342.618
583.0000	59.0771	-0.0031758	0.388399	343.744
582.5000	61.1638	-0.00323462	0.399461	344.902
582.0000	62.8887	-0.00330927	0.41201	346.066
581.5000	64.7476	-0.00338292	0.425217	347.274
581.0000	66.5302	-0.00345861	0.43795	348.503
580.5000	68.2014	-0.00348784	0.44888	349.727
580.0000	69.8436	-0.00355058	0.460296	350.932
579.5000	71.1178	-0.00359512	0.472516	352.135
579.0000	72.5253	-0.00366129	0.484761	353.329
578.5000	74.0072	-0.00371646	0.497541	354.513
578.0000	75.246	-0.00378613	0.509802	355.724
577.5000	76.4087	-0.00384252	0.521685	356.986
577.0000	77.0954	-0.00389418	0.534128	358.17
576.5000	78.153	-0.00399595	0.547582	359.422
576.0000	78.8247	-0.00401901	0.558338	360.587
575.5000	79.285	-0.00407443	0.570224	361.76
575.0000	79.7949	-0.00414365	0.58126	362.801
574.5000	80.4685	-0.00421386	0.592289	363.882
574.0000	80.8143	-0.00425037	0.602234	364.879
573.5000	81.4204	-0.00425131	0.611878	365.838
573.0000	81.3067	-0.00432188	0.621624	366.799
572.5000	81.1302	-0.00436711	0.631015	367.652
572.0000	81.0577	-0.00439571	0.641331	368.556
571.5000	80.9574	-0.00444972	0.650438	369.38
571.0000	80.9046	-0.00446377	0.65794	370.157
570.5000	80.5876	-0.00450676	0.665713	370.89
570.0000	80.1495	-0.00451	0.671855	371.563
569.5000	79.8564	-0.00455362	0.678549	372.18
569.0000	79.245	-0.00461261	0.684918	372.723
568.5000	78.8241	-0.0045952	0.689708	373.184
568.0000	78.3132	-0.00464585	0.693552	373.579
567.5000	77.7873	-0.00471374	0.698431	373.936
567.0000	77.4049	-0.0046666	0.703001	374.246
566.5000	76.9457	-0.004667	0.706686	374.47
566.0000	76.2051	-0.00471097	0.710105	374.638
565.5000	75.5447	-0.00477253	0.711687	374.763
565.0000	74.7387	-0.00476743	0.713972	374.826
564.5000	74.2779	-0.00478443	0.715463	374.861
564.0000	73.269	-0.0048048	0.716398	374.853
563.5000	72.9136	-0.00482727	0.717499	374.807
563.0000	72.4263	-0.00481015	0.71832	374.754
562.5000	71.7415	-0.00483891	0.71935	374.649
562.0000	71.578	-0.00484341	0.720956	374.53
561.5000	70.7339	-0.0048459	0.720809	374.365
561.0000	70.2353	-0.00483302	0.721883	374.207
560.5000	69.9863	-0.0048214	0.722328	374.036
560.0000	69.533	-0.00481919	0.723083	373.893
559.5000	68.7922	-0.0047518	0.723309	373.711
559.0000	68.9056	-0.00477671	0.723005	373.525
558.5000	68.7562	-0.0047799	0.722826	373.354
558.0000	69.1016	-0.00475618	0.722154	373.207
557.5000	69.1077	-0.00473757	0.722803	373.078
557.0000	69.4385	-0.00473602	0.722623	372.966
556.5000	69.4751	-0.00471954	0.72272	372.876
556.0000	70.0643	-0.00472073	0.723916	372.802
555.5000	71.0467	-0.00472474	0.724882	372.762
555.0000	71.606	-0.004703	0.726747	372.748
554.5000	71.7192	-0.00473788	0.728256	372.781
554.0000	72.8952	-0.00471279	0.729576	372.858
553.5000	74.1058	-0.00471769	0.732179	372.928
553.0000	74.9328	-0.00472756	0.733741	373.052
552.5000	75.8857	-0.00473905	0.736657	373.22
552.0000	76.2887	-0.00479192	0.73956	373.416
551.5000	77.4233	-0.00482335	0.743684	373.658
551.0000	78.8457	-0.00484972	0.748737	373.982
550.5000	80.1254	-0.00484356	0.753966	374.333
550.0000	80.7638	-0.00488022	0.759242	374.75
549.5000	81.633	-0.00490602	0.76387	375.193
549.0000	83.0281	-0.00493066	0.769859	375.681
548.5000	84.3457	-0.00494334	0.775679	376.262
548.0000	85.8706	-0.00501132	0.783837	376.908
547.5000	86.8995	-0.00502927	0.790472	377.59
547.0000	87.9144	-0.00509778	0.798293	378.332
546.5000	89.5457	-0.00517196	0.804538	379.101
546.0000	90.6724	-0.005224	0.813846	379.946
545.5000	91.8119	-0.00528206	0.820947	380.813
545.0000	93.1474	-0.00532225	0.829104	381.711
544.5000	94.3895	-0.00541159	0.836898	382.689
544.0000	95.7223	-0.00541389	0.847401	383.711
543.5000	97.1914	-0.00550008	0.856625	384.76
543.0000	98.3283	-0.00557817	0.865808	385.827
542.5000	99.3895	-0.00567112	0.875913	386.934
542.0000	100.763	-0.00574938	0.885712	388.068
541.5000	101.973	-0.00576145	0.89653	389.245
541.0000	102.449	-0.00582221	0.908821	390.413
540.5000	102.983	-0.00589408	0.921052	391.642
540.0000	103.688	-0.00593101	0.931597	392.837
539.5000	104.238	-0.00598096	0.941813	394.011
539.0000	104.353	-0.00603194	0.953901	395.259
538.5000	103.859	-0.00610636	0.965693	396.476
538.0000	104.067	-0.006151	0.976996	397.61
537.5000	104.122	-0.0061988	0.989167	398.764
537.0000	103.132	-0.00625542	1.00123	399.908
536.5000	102.249	-0.00632845	1.01225	400.954
536.0000	101.612	-0.0063945	1.02155	402.021
535.5000	100.508	-0.00640094	1.0311	403.003
535.0000	99.2186	-0.0064267	1.04197	403.988
534.5000	97.7881	-0.0064817	1.05157	404.852
534.0000	95.7049	-0.00657099	1.06071	405.703
533.5000	94.0277	-0.00664132	1.06802	406.512
533.0000	92.6307	-0.00670003	1.0748	407.216
532.5000	90.6042	-0.00678584	1.08182	407.896
532.0000	88.8929	-0.00678848	1.08865	408.558
531.5000	86.595	-0.00687427	1.09604	409.173
531.0000	84.5004	-0.00694659	1.10323	409.719
530.5000	82.2542	-0.00695608	1.10861	410.197
530.0000	80.3351	-0.00705746	1.11406	410.639
529.5000	77.7836	-0.00708484	1.1185	411.041
529.0000	75.7712	-0.00715439	1.12078	411.333
528.5000	73.9112	-0.00721551	1.12405	411.593
528.0000	72.2967	-0.00725231	1.12836	411.792
527.5000	70.5705	-0.007276	1.13157	411.953
527.0000	68.0505	-0.00732063	1.13301	412.097
526.5000	65.8908	-0.00739628	1.13416	412.21
526.0000	64.2607	-0.00740126	1.13577	412.286
525.5000	62.4645	-0.00743897	1.13873	412.322
525.0000	60.5434	-0.00748524	1.14011	412.33
524.5000	58.7449	-0.00752462	1.14155	412.306
524.0000	56.9928	-0.00752735	1.14283	412.263
523.5000	54.6832	-0.00755239	1.14491	412.222
523.0000	52.529	-0.00758173	1.1456	412.174
522.5000	50.9642	-0.00759156	1.14612	412.144
522.0000	50.0404	-0.00765189	1.14697	412.111
521.5000	48.4573	-0.00762398	1.14882	412.083
521.0000	46.5912	-0.00769817	1.15081	412.047
520.5000	44.8624	-0.00770506	1.15245	412.046
520.0000	43.4328	-0.00771424	1.15322	412.05
519.5000	41.5547	-0.0077611	1.15617	412.057
519.0000	39.3013	-0.00777698	1.15832	412.075
518.5000	38.3288	-0.00777133	1.15993	412.127
518.0000	36.99	-0.00778195	1.16113	412.22
517.5000	34.6922	-0.00782652	1.16236	412.363
517.0000	33.1489	-0.00785543	1.16513	412.534
516.5000	31.4298	-0.00789441	1.16879	412.72
516.0000	30.308	-0.00798048	1.17151	412.942
515.5000	28.9949	-0.0080099	1.17431	413.18
515.0000	27.8011	-0.00808351	1.17738	413.408
514.5000	27.0534	-0.00811469	1.17953	413.668
514.0000	25.6422	-0.00811562	1.18179	413.887
513.5000	23.3615	-0.00817757	1.18577	414.151
513.0000	21.9004	-0.00827034	1.18916	414.424
512.5000	19.9439	-0.00830085	1.19312	414.748
512.0000	18.7644	-0.00832732	1.19691	415.039
511.5000	17.0696	-0.00840444	1.20007	415.311
511.0000	15.8167	-0.00848132	1.20213	415.573
510.5000	14.5043	-0.00856822	1.20498	415.778
510.0000	12.6588	-0.00860331	1.2082	415.946
509.5000	10.9633	-0.0086579	1.21181	416.064
509.0000	9.70247	-0.00871255	1.21356	416.142
508.5000	7.40887	-0.00873037	1.21459	416.169
508.0000	5.58265	-0.00872545	1.21698	416.164
507.5000	2.88268	-0.00882473	1.2184	416.131
507.0000	1.11599	-0.00881315	1.21839	416.056
506.5000	-0.588766	-0.00884996	1.21928	415.926
506.0000	-2.93261	-0.00891834	1.22	415.771
505.5000	-4.34511	-0.00893231	1.21957	415.542
505.0000	-5.92301	-0.00889252	1.21714	415.262
504.5000	-8.07874	-0.00892991	1.21473	414.873
504.0000	-10.4321	-0.00893436	1.21091	414.393
503.5000	-12.7278	-0.00897201	1.20741	413.857
503.0000	-14.6609	-0.00892808	1.20305	413.205
502.5000	-16.1098	-0.00891089	1.19946	412.535
502.0000	-17.4991	-0.00890594	1.19275	411.785
501.5000	-18.6585	-0.0088931	1.18746	410.971
501.0000	-19.836	-0.00891101	1.18051	410.027
500.5000	-22.3372	-0.00888273	1.17387	408.986
500.0000	-23.6778	-0.00891356	1.166	407.794
499.5000	-24.5358	-0.00890456	1.15702	406.419
499.0000	-25.5018	-0.0088574	1.14791	404.765
498.5000	-26.6488	-0.0088251	1.13877	402.984
498.0000	-27.9875	-0.00878086	1.12916	401.072
497.5000	-29.03	-0.00875222	1.11978	399.02
497.0000	-29.9582	-0.00875846	1.1111	397.177
496.5000	-30.8469	-0.00872241	1.1011	395.454
496.0000	-31.0927	-0.00866879	1.09132	393.947
495.5000	-31.4515	-0.00854589	1.08054	392.411
495.0000	-32.0428	-0.00846273	1.0711	390.94
494.5000	-32.6549	-0.00841261	1.06079	389.471
494.0000	-33.2814	-0.00837472	1.04952	388.079
493.5000	-34.1503	-0.00833148	1.04013	386.628
493.0000	-34.5442	-0.00827476	1.03006	385.284
492.5000	-34.6794	-0.00819259	1.01979	383.893
492.0000	-34.5698	-0.00810484	1.00748	382.41
491.5000	-34.2705	-0.00799877	0.996303	381.057
491.0000	-33.9329	-0.00790414	0.984657	379.78
490.5000	-33.8815	-0.00785761	0.973279	378.587
490.0000	-33.8286	-0.00778368	0.961532	377.469
489.5000	-33.8401	-0.00769894	0.950544	376.385
489.0000	-33.0774	-0.00760662	0.938539	375.071
488.5000	-32.995	-0.00754053	0.927342	373.581
488.0000	-32.1866	-0.00745855	0.917228	371.916
487.5000	-31.9939	-0.0074086	0.906032	370.161
487.0000	-31.6572	-0.00737195	0.895469	368.438
486.5000	-31.0837	-0.00729525	0.886499	366.642
486.0000	-30.6098	-0.0072255	0.87903	365.088
485.5000	-29.9282	-0.00714606	0.872408	363.724
485.0000	-29.5568	-0.00706934	0.863619	362.464
484.5000	-29.0009	-0.007028	0.855225	361.277
484.0000	-28.3286	-0.00687722	0.845891	360.121
483.5000	-28.3251	-0.00682028	0.837608	359.093
483.0000	-28.0075	-0.00674019	0.829303	358.088
482.5000	-27.5983	-0.00667001	0.821749	357.242
482.0000	-27.607	-0.00660484	0.814735	356.453
481.5000	-27.4672	-0.00655026	0.805773	355.655
481.0000	-26.7774	-0.00647602	0.797208	354.938
480.5000	-26.2433	-0.0064084	0.788816	354.242
480.0000	-25.7841	-0.00632867	0.779656	353.441
479.5000	-25.6211	-0.00626754	0.770956	352.363
479.0000	-25.2094	-0.00620546	0.762806	351.011
478.5000	-24.9447	-0.00615775	0.756439	349.841
478.0000	-24.7786	-0.00611019	0.748864	348.852
477.5000	-24.4141	-0.00605315	0.740349	348.053
477.0000	-23.8838	-0.0059727	0.729953	347.058
476.5000	-23.4315	-0.00590779	0.718678	345.631
476.0000	-23.1796	-0.0058343	0.708632	344.051
475.5000	-23.1771	-0.00582443	0.700087	342.294
475.0000	-23.0315	-0.0057786	0.690687	340.396
474.5000	-22.8702	-0.0057146	0.681277	338.422
474.0000	-22.588	-0.00566391	0.671593	336.285
473.5000	-22.4986	-0.00556472	0.663921	333.898
473.0000	-22.2818	-0.00549924	0.65867	331.605
472.5000	-22.0576	-0.00540069	0.654233	329.605
472.0000	-22.0099	-0.00531801	0.648694	328.171
471.5000	-21.3777	-0.00524284	0.641513	327.112
471.0000	-21.0986	-0.00516086	0.634735	326.603
470.5000	-20.7741	-0.00508461	0.627342	326.213
470.0000	-20.1229	-0.00502614	0.61906	325.637
469.5000	-19.9151	-0.00493915	0.609911	324.64
469.0000	-19.2404	-0.00487376	0.601036	323.288
468.5000	-19.173	-0.00477645	0.594039	321.932
468.0000	-18.8029	-0.00470008	0.587889	320.782
467.5000	-18.2777	-0.00458777	0.58179	319.984
467.0000	-17.9391	-0.00450318	0.575004	319.438
466.5000	-17.263	-0.00442982	0.568736	319.131
466.0000	-16.7782	-0.00434982	0.562408	319.056
465.5000	-16.101	-0.00427454	0.554583	319.217
465.0000	-15.4641	-0.00422064	0.543903	319.486
464.5000	-14.8801	-0.00414923	0.529809	319.472
464.0000	-14.6299	-0.00409078	0.518073	318.995
463.5000	-14.5003	-0.00402651	0.508452	318.258
463.0000	-14.3544	-0.0039487	0.499931	317.461
462.5000	-14.1654	-0.0038814	0.492128	316.713
462.0000	-13.9026	-0.00379283	0.484675	316.075
461.5000	-13.3805	-0.00374626	0.477214	315.613
461.0000	-13.1424	-0.00366115	0.469245	315.307
460.5000	-12.8593	-0.00357599	0.460915	315.106
460.0000	-12.4751	-0.00350151	0.451749	314.903
459.5000	-11.9767	-0.00342349	0.443118	314.621
459.0000	-11.6016	-0.0033295	0.433747	314.171
458.5000	-11.0759	-0.00324673	0.424936	313.557
458.0000	-10.7101	-0.00316446	0.41542	312.717
457.5000	-10.7451	-0.00310425	0.407346	311.847
457.0000	-10.4889	-0.00303451	0.399389	311.056
456.5000	-10.1463	-0.00296772	0.391181	310.274
456.0000	-9.99486	-0.00288415	0.382913	309.312
455.5000	-9.50709	-0.00278271	0.375448	308.196
455.0000	-9.38832	-0.00272752	0.369624	307.323
454.5000	-8.8854	-0.0026582	0.363796	306.739
454.0000	-8.52548	-0.00257676	0.356601	306.219
453.5000	-8.41468	-0.00251928	0.349435	305.696
453.0000	-8.24455	-0.00246069	0.343447	305.172
452.5000	-7.74758	-0.00242629	0.33799	304.641
452.0000	-7.53626	-0.0023565	0.33101	304.08
451.5000	-7.44488	-0.00233007	0.324229	303.501
451.0000	-7.16696	-0.00228551	0.317328	302.948
450.5000	-6.86642	-0.00223964	0.310277	302.405
450.0000	-6.61879	-0.00220019	0.304388	302.042
449.5000	-6.23252	-0.00214818	0.299396	301.81
449.0000	-6.05297	-0.00208126	0.293936	301.528
448.5000	-5.91034	-0.00201812	0.28879	301.106
448.0000	-5.63446	-0.00196318	0.285357	300.836
447.5000	-5.54801	-0.00192827	0.281677	300.832
447.0000	-5.29284	-0.00189215	0.276107	300.875
446.5000	-5.06502	-0.00184952	0.269573	300.673
446.0000	-4.98891	-0.00181246	0.263757	300.19
445.5000	-4.73464	-0.00176549	0.259296	299.624
445.0000	-4.37108	-0.00172334	0.253726	299.005
444.5000	-4.35661	-0.00166205	0.247963	298.33
444.0000	-4.37707	-0.00164807	0.242669	297.665
443.5000	-4.16455	-0.00158798	0.237327	296.99
443.0000	-3.92192	-0.00152636	0.233047	296.438
442.5000	-4.00796	-0.00149177	0.229147	295.924
442.0000	-4.1109	-0.0014611	0.226858	295.484
441.5000	-4.20953	-0.00141148	0.222639	295.013
441.0000	-3.99624	-0.00136519	0.21789	294.584
440.5000	-3.92121	-0.00133811	0.213736	294.156
440.0000	-3.63429	-0.00130733	0.209842	293.719
439.5000	-3.55857	-0.00127273	0.205712	293.275
439.0000	-3.39947	-0.00123126	0.200866	292.801
438.5000	-3.27647	-0.0011609	0.194797	292.321
438.0000	-3.00973	-0.00110962	0.187948	291.842
437.5000	-2.97858	-0.00106944	0.182387	291.392
437.0000	-2.76016	-0.00103695	0.177388	290.957
436.5000	-2.7515	-0.0009868	0.173599	290.617
436.0000	-2.55508	-0.000929379	0.169476	290.321
435.5000	-2.45116	-0.000886852	0.164813	290.028
435.0000	-2.19144	-0.000838984	0.160775	289.703
434.5000	-1.86661	-0.000804876	0.156653	289.353
434.0000	-1.87232	-0.000760375	0.152533	288.984
433.5000	-1.70756	-0.000722453	0.148297	288.631
433.0000	-1.7514	-0.000694635	0.145085	288.227
432.5000	-1.85539	-0.000683613	0.141781	287.843
432.0000	-1.80749	-0.000639647	0.137217	287.453
431.5000	-1.75028	-0.000610552	0.133311	287.064
431.0000	-1.66461	-0.000562457	0.129694	286.689
430.5000	-1.44544	-0.00052491	0.126257	286.311
430.0000	-1.21334	-0.000507287	0.123099	285.955
429.5000	-1.09351	-0.000470275	0.120497	285.567
429.0000	-1.03822	-0.000436016	0.118072	285.188
428.5000	-1.06545	-0.000370016	0.115312	284.803
428.0000	-1.23423	-0.000346618	0.112429	284.423
427.5000	-0.925491	-0.000322336	0.10911	284.084
427.0000	-0.831148	-0.000285168	0.106165	283.748
426.5000	-0.820785	-0.000256772	0.104795	283.386
426.0000	-0.651439	-0.000215832	0.102571	282.977
425.5000	-0.262035	-0.000183088	0.100093	282.54
425.0000	-0.15054	-0.000182174	0.0982263	282.076
424.5000	-0.165527	-0.000160366	0.0956556	281.65
424.0000	0.12108	-0.000130616	0.0935541	281.289
423.5000	0.326457	-0.000100721	0.0915011	280.98
423.0000	0.254507	-7.83038E-005	0.0892935	280.696
422.5000	0.294998	-7.05521E-005	0.0873931	280.428
422.0000	0.287895	-4.81997E-005	0.0857635	280.175
421.5000	0.478015	-3.52024E-005	0.0834174	279.932
421.0000	0.402514	-2.40527E-005	0.0812133	279.725
420.5000	0.366678	-8.01862E-006	0.0785532	279.499
420.0000	0.454962	-1.61164E-005	0.0764982	279.269
419.5000	0.563404	-2.86367E-006	0.0741664	279.029
419.0000	0.419476	9.84557E-006	0.0722881	278.798
418.5000	0.372586	9.49253E-006	0.0706068	278.605
418.0000	0.328652	2.29628E-005	0.069104	278.428
417.5000	0.424291	4.07839E-005	0.0668452	278.273
417.0000	0.307053	5.08643E-005	0.0657576	278.161
416.5000	0.219135	7.40771E-005	0.064227	278.109
416.0000	0.215541	7.34273E-005	0.0633636	278.018
415.5000	0.172303	8.99705E-005	0.0616518	277.876
415.0000	0.258417	0.000100211	0.0608736	277.707
414.5000	0.284488	0.000121527	0.060362	277.531
414.0000	0.355657	0.000139392	0.058911	277.355
413.5000	0.168447	0.00013709	0.0568018	277.181
413.0000	0.121406	0.000166689	0.0558656	277.035
412.5000	0.326887	0.000186987	0.0545384	276.904
412.0000	0.393434	0.000195168	0.0541089	276.804
411.5000	0.586139	0.000201994	0.0539974	276.685
411.0000	0.342858	0.000207756	0.0543639	276.594
410.5000	0.201385	0.000222634	0.0534232	276.527
410.0000	0.272346	0.000251931	0.0517231	276.471
409.5000	0.370268	0.00024937	0.0501255	276.435
409.0000	0.257194	0.000282519	0.0494675	276.409
408.5000	0.260591	0.000298272	0.0491279	276.379
408.0000	0.22842	0.00032263	0.0480557	276.333
407.5000	0.146819	0.000348526	0.0473703	276.29
407.0000	0.153743	0.000346124	0.046913	276.233
406.5000	0.122932	0.000349891	0.0468798	276.18
406.0000	0.146306	0.00038955	0.0454297	276.116
405.5000	0.130127	0.00039845	0.0447932	276.037
405.0000	0.0885494	0.00041654	0.0453021	275.929
404.5000	0.0764314	0.000415646	0.0454312	275.799
404.0000	-0.00143493	0.000414442	0.0456075	275.634
403.5000	0.0258009	0.000433988	0.0452839	275.447
403.0000	0.0103081	0.000443777	0.0452728	275.267
402.5000	0.212339	0.000473839	0.0461342	275.076
402.0000	0.323885	0.000475469	0.0470571	274.893
401.5000	0.135565	0.000491809	0.0475157	274.704
401.0000	0.0425725	0.000476526	0.0494722	274.535
400.5000	-0.107633	0.000484148	0.0504591	274.393
400.0000	-0.0460049	0.000477076	0.0518165	274.285
399.5000	0.118171	0.000482886	0.0520155	274.197
399.0000	0.0938341	0.000500216	0.052066	274.136
398.5000	0.0309195	0.000508502	0.0530869	274.095
398.0000	0.00645533	0.000515355	0.0540718	274.066
397.5000	0.0592058	0.000504703	0.0555481	274.076
397.0000	0.0479462	0.000508323	0.0558854	274.109
396.5000	0.249315	0.000525285	0.0559766	274.182
396.0000	-0.0824902	0.000517901	0.0571854	274.286
395.5000	-0.159082	0.000509343	0.0580055	274.404
395.0000	-0.0884241	0.000509588	0.0582024	274.563
394.5000	-0.00200929	0.000517398	0.0577244	274.739
394.0000	0.0618178	0.000523497	0.0577314	274.939
393.5000	0.0817673	0.000510154	0.0586905	275.148
393.0000	0.20369	0.000502825	0.058912	275.374
392.5000	0.228664	0.000504626	0.0578554	275.574
392.0000	0.330582	0.000517274	0.0574901	275.752
391.5000	0.197738	0.000515219	0.0589287	275.915
391.0000	0.168854	0.000516929	0.0600275	276.054
390.5000	0.149482	0.000530748	0.0601211	276.194
390.0000	0.134716	0.000524128	0.0602717	276.329
389.5000	0.233998	0.000508282	0.0612566	276.458
389.0000	0.286128	0.000514204	0.0622259	276.577
388.5000	0.213153	0.000526416	0.0636333	276.692
388.0000	0.241269	0.000547694	0.0630353	276.809
387.5000	0.398838	0.00056844	0.0636014	276.921
387.0000	0.46018	0.000574244	0.0643445	277.026
386.5000	0.283859	0.000581901	0.066636	277.124
386.0000	0.261144	0.00058562	0.068325	277.216
385.5000	0.381506	0.000600783	0.0695533	277.296
385.0000	0.379507	0.000613195	0.0707662	277.376
384.5000	0.405895	0.000629324	0.0738365	277.457
384.0000	0.303021	0.000629964	0.0747875	277.543
383.5000	0.294259	0.000638848	0.0749133	277.624
383.0000	0.523069	0.000647461	0.0747455	277.707
382.5000	0.639248	0.000667629	0.0755756	277.784
382.0000	0.740369	0.000657648	0.0774079	277.866
381.5000	0.824925	0.000664875	0.0787507	277.952
381.0000	0.570276	0.000673387	0.0793444	278.043
380.5000	0.688633	0.000680108	0.0802336	278.138
380.0000	0.745399	0.000659362	0.0813446	278.227
379.5000	0.73827	0.000642196	0.0831945	278.315
379.0000	0.783779	0.000637652	0.0829654	278.416
378.5000	0.640362	0.000639984	0.0832972	278.508
378.0000	0.783411	0.000649182	0.0832684	278.591
377.5000	0.738797	0.000651058	0.0836083	278.675
377.0000	0.863274	0.000636585	0.0841551	278.739
376.5000	0.747483	0.000627547	0.0852249	278.809
376.0000	0.529683	0.000610542	0.0857565	278.856
375.5000	0.775506	0.000613855	0.0877052	278.899
375.0000	0.851797	0.000594615	0.0901372	278.939
374.5000	0.783542	0.000580547	0.0924688	278.974
374.0000	0.704099	0.000543008	0.0933471	279.02
373.5000	0.726424	0.000546155	0.0923376	279.053
373.0000	0.821184	0.000536437	0.0926462	279.074
372.5000	0.980689	0.000534452	0.094322	279.101
372.0000	1.06236	0.000534117	0.0944426	279.13
371.5000	1.03851	0.000549891	0.0947093	279.163
371.0000	1.18848	0.000554228	0.0954622	279.201
370.5000	1.24963	0.000555293	0.0980469	279.241
370.0000	1.37481	0.000551972	0.0987677	279.279
369.5000	1.34946	0.000550954	0.0992679	279.335
369.0000	1.46407	0.000538091	0.100215	279.405
368.5000	1.10525	0.000534544	0.100896	279.492
368.0000	1.2554	0.00054055	0.100748	279.569
367.5000	1.39063	0.000540446	0.101235	279.67
367.0000	1.42446	0.000543557	0.101414	279.777
366.5000	1.1946	0.000546658	0.101735	279.89
366.0000	1.30125	0.000560077	0.102868	280.021
365.5000	1.23024	0.00057882	0.1049	280.134
365.0000	1.3001	0.000582202	0.105166	280.249
364.5000	1.24952	0.000577391	0.105514	280.371
364.0000	0.960107	0.00056595	0.105878	280.501
363.5000	0.945328	0.000554337	0.107515	280.614
363.0000	0.900648	0.000531522	0.108621	280.734
362.5000	0.962375	0.000526021	0.109993	280.848
362.0000	1.00323	0.000527674	0.111245	280.974
361.5000	1.08064	0.000527221	0.112376	281.093
361.0000	1.10774	0.000523255	0.113954	281.2
360.5000	1.25789	0.000517076	0.114573	281.313
360.0000	1.45371	0.000496772	0.116002	281.424
359.5000	1.38495	0.000483013	0.117158	281.54
359.0000	1.45253	0.000480877	0.118632	281.655
358.5000	1.36968	0.000488381	0.118989	281.769
358.0000	1.47776	0.000485668	0.119087	281.871
357.5000	1.6323	0.000477139	0.119384	281.982
357.0000	1.72879	0.000463349	0.119392	282.093
356.5000	1.69512	0.000444411	0.121367	282.216
356.0000	1.57432	0.000438787	0.123487	282.324
355.5000	1.71367	0.000430952	0.12451	282.425
355.0000	1.95659	0.00041139	0.125616	282.536
354.5000	1.9235	0.000418657	0.126268	282.642
354.0000	1.7742	0.00041967	0.127413	282.769
353.5000	1.61247	0.000406545	0.12871	282.887
353.0000	1.61069	0.000382942	0.128821	283.008
352.5000	1.87202	0.000368522	0.128723	283.137
352.0000	1.79068	0.000367017	0.130234	283.273
351.5000	1.71323	0.000367864	0.13179	283.391
351.0000	1.66124	0.000373924	0.133055	283.511
350.5000	1.74763	0.00036076	0.133841	283.633
350.0000	1.72922	0.000349451	0.134562	283.764
349.5000	1.81935	0.000320387	0.135929	283.897
349.0000	1.70385	0.000313691	0.137194	284.031
348.5000	1.55989	0.0002956	0.138869	284.169
348.0000	1.59461	0.000293195	0.138887	284.294
347.5000	1.65239	0.000294625	0.139398	284.416
347.0000	1.79044	0.000304536	0.140408	284.547
346.5000	1.86722	0.000301922	0.141649	284.684
346.0000	1.87158	0.000289488	0.142691	284.816
345.5000	1.90613	0.00026789	0.143298	284.935
345.0000	1.95827	0.000244424	0.144951	285.071
344.5000	1.94477	0.000236664	0.14698	285.197
344.0000	1.91319	0.000216239	0.148626	285.328
343.5000	2.06812	0.000185203	0.148935	285.45
343.0000	2.15802	0.000173551	0.149536	285.571
342.5000	2.20657	0.000163782	0.149628	285.691
342.0000	2.117	0.000135608	0.150561	285.824
341.5000	2.36168	0.000135323	0.151112	285.948
341.0000	2.34919	0.00011132	0.152093	286.07
340.5000	2.39312	0.000104549	0.152925	286.19
340.0000	2.6298	9.61542E-005	0.153637	286.321
339.5000	2.71043	7.54814E-005	0.155373	286.443
339.0000	2.72019	4.33156E-005	0.157442	286.586
338.5000	2.67254	2.76289E-005	0.159161	286.718
338.0000	2.77525	-5.15596E-006	0.160429	286.859
337.5000	2.90212	-3.15124E-005	0.161353	287.008
337.0000	3.18496	-4.3772E-005	0.162783	287.144
336.5000	3.09327	-7.22879E-005	0.163593	287.279
336.0000	3.3507	-9.63481E-005	0.16469	287.433
335.5000	3.30341	-0.000110738	0.165762	287.583
335.0000	3.15405	-0.000133034	0.16784	287.748
334.5000	3.39843	-0.000157911	0.169782	287.925
334.0000	3.58993	-0.000179951	0.1727	288.097
333.5000	3.43226	-0.000205378	0.174844	288.285
333.0000	3.47178	-0.000245593	0.177228	288.466
332.5000	3.49485	-0.000262807	0.179419	288.64
332.0000	3.54377	-0.000295679	0.182061	288.836
331.5000	3.47158	-0.000327168	0.185025	289.036
331.0000	3.57098	-0.000373166	0.185775	289.261
330.5000	3.5494	-0.000424179	0.186756	289.455
330.0000	3.57869	-0.000476412	0.188366	289.655
329.5000	3.67796	-0.000518967	0.189963	289.861
329.0000	3.67222	-0.00056179	0.191926	290.083
328.5000	3.91832	-0.000599645	0.193563	290.296
328.0000	3.99906	-0.000621881	0.195461	290.496
327.5000	3.92483	-0.00066413	0.197372	290.682
327.0000	4.10177	-0.000696531	0.199191	290.865
326.5000	4.19298	-0.000729711	0.2003	291.076
326.0000	4.11906	-0.000774102	0.2014	291.297
325.5000	3.97296	-0.000824354	0.203232	291.52
325.0000	4.24546	-0.000854235	0.20504	291.746
324.5000	4.47371	-0.000888797	0.207512	291.991
324.0000	4.60267	-0.000934287	0.209272	292.241
323.5000	4.74148	-0.000987708	0.210595	292.483
323.0000	4.86699	-0.00102272	0.212625	292.732
322.5000	4.97437	-0.00106077	0.215407	292.991
322.0000	5.15536	-0.00108775	0.218244	293.251
321.5000	5.4012	-0.00110936	0.221291	293.514
321.0000	5.6272	-0.001133	0.223327	293.775
320.5000	5.70974	-0.00117216	0.225012	294.026
320.0000	5.50401	-0.0012003	0.227843	294.273
319.5000	5.62641	-0.00122771	0.230908	294.55
319.0000	5.89671	-0.00127869	0.234097	294.842
318.5000	6.03649	-0.00130196	0.235856	295.142
318.0000	6.26785	-0.00133084	0.238864	295.412
317.5000	6.56021	-0.00137816	0.241588	295.659
317.0000	6.70984	-0.00141514	0.242443	295.923
316.5000	6.62121	-0.00145233	0.245604	296.171
316.0000	6.69266	-0.00146785	0.248417	296.451
315.5000	6.69515	-0.00150932	0.252651	296.734
315.0000	6.87915	-0.00153052	0.255838	297.054
314.5000	6.93379	-0.00156563	0.258831	297.35
314.0000	7.06159	-0.00158453	0.261452	297.662
313.5000	7.19049	-0.00160234	0.263763	298.001
313.0000	7.16224	-0.00163807	0.266796	298.369
312.5000	7.26822	-0.00166082	0.270839	298.75
312.0000	7.26549	-0.00170072	0.274683	299.143
311.5000	7.37293	-0.00172798	0.278641	299.543
311.0000	7.68399	-0.0017608	0.281749	299.951
310.5000	7.59016	-0.00179769	0.286298	300.406
310.0000	7.8411	-0.00182751	0.290701	300.849
309.5000	8.00843	-0.00185244	0.293941	301.33
309.0000	8.14404	-0.00187349	0.299547	301.871
308.5000	8.33905	-0.00191812	0.30578	302.431
308.0000	8.68727	-0.00194217	0.311396	302.966
307.5000	8.58632	-0.00200593	0.317197	303.579
307.0000	8.72083	-0.00205402	0.321597	304.152
306.5000	8.8598	-0.0020705	0.327994	304.786
306.0000	8.83385	-0.00211702	0.334385	305.414
305.5000	9.16612	-0.00216846	0.341929	306.109
305.0000	9.22303	-0.00221221	0.348568	306.781
304.5000	9.38378	-0.00225519	0.356335	307.51
304.0000	9.34709	-0.00231517	0.363635	308.25
303.5000	9.69381	-0.00233883	0.37068	308.987
303.0000	9.70599	-0.00238366	0.377105	309.785
302.5000	9.62386	-0.00242396	0.384881	310.61
302.0000	9.80903	-0.00244837	0.393218	311.448
301.5000	9.81477	-0.00246595	0.401245	312.289
301.0000	9.76215	-0.00249894	0.410011	313.127
300.5000	9.80114	-0.00252364	0.416973	313.868
300.0000	9.91884	-0.00252874	0.424625	314.745

##### Extended Information
[Comments]
Sample name	30% R-JS new 1
Comment
User
Division
Company	Labo systeme complexes hors equilibre

[Detailed Information]
Creation date	9/25/2025 7:17 PM

Data array type	Linear data array * 4
Horizontal axis	Wavelength [nm]
Vertical axis(1)	CD [mdeg]
Vertical axis(2)	LD [dOD]
Vertical axis(3)	Abs
Vertical axis(4)	HT [V]
Start	700 nm
End	300 nm
Data interval	0.5 nm
Data points	801     

[Measurement Information]
Instrument name	CD Jasco
Model name	J-1500
Serial No.	A005261638

Detector	PM-539
Detector S/N	A0052PM539
  Lock-in amp.	X mode
  HT volt	Auto

Detector	EXPML-535
Detector S/N	A0001
  Lock-in amp.	X mode
  HT volt	Auto

Accessory	PTC-517
Accessory S/N	A001361646
  Temperature	19.98 C
  Control sonsor	Holder
  Monitor sensor	Holder
  Start Mode	Keep target temperature +/-0.10 deg C while 5 seconds

Measurement date	9/25/2025 7:17 PM

Overload detect	1
Photometric mode	CD, LD, Abs, HT
Measure range	700 - 300 nm
Data pitch	0.5 nm
CD scale	200 mdeg/1.0 dOD
FL scale	200 mdeg/1.0 dOD
D.I.T.	1 sec
Bandwidth	1.00 nm
Start mode	Immediately
Scanning speed	500 nm/min
Baseline correction	Baseline
Shutter control	Auto

Concentration	50 umol/L
Solvent	water

