TITLE	5% R-JS with DT after 72 hrs 1
DATA TYPE	
ORIGIN	JASCO
OWNER	
DATE	25/07/07
TIME	17:29:52
SPECTROMETER/DATA SYSTEM	
LOCALE	1033
RESOLUTION	
DELTAX	-0.5
XUNITS	NANOMETERS
YUNITS	CD [mdeg]
Y2UNITS	LD [dOD]
Y3UNITS	ABSORBANCE
Y4UNITS	HT [V]
FIRSTX	  700.0000
LASTX	  230.0000
NPOINTS	     941
FIRSTY	    -3.89307
MAXY	   155.40417
MINY	  -202.05171
XYDATA
700.0000	-3.89307	-0.00457582	0.0538306	318.035
699.5000	-3.50269	-0.00458023	0.0535737	317.456
699.0000	-3.69267	-0.00459858	0.0537844	316.823
698.5000	-3.92401	-0.0046225	0.0547967	316.189
698.0000	-4.12518	-0.00463635	0.0570657	315.595
697.5000	-4.29276	-0.00464136	0.0605371	315.086
697.0000	-4.30351	-0.00464647	0.0640133	314.602
696.5000	-4.36851	-0.00464702	0.0669465	314.207
696.0000	-4.6254	-0.0046548	0.0691949	313.864
695.5000	-4.48595	-0.0046707	0.0721257	313.614
695.0000	-4.61891	-0.00466703	0.0742245	313.424
694.5000	-4.81238	-0.004702	0.0764736	313.257
694.0000	-4.95404	-0.00471635	0.0780536	313.106
693.5000	-5.11912	-0.00472144	0.0806094	313.003
693.0000	-5.41919	-0.00473065	0.0831235	312.959
692.5000	-5.3979	-0.00475247	0.0855627	313.009
692.0000	-5.28636	-0.00476563	0.0883539	313.165
691.5000	-5.30082	-0.00479457	0.0909966	313.415
691.0000	-5.22195	-0.0048074	0.0933927	313.781
690.5000	-5.53035	-0.0048335	0.0938821	314.163
690.0000	-5.59487	-0.00486579	0.0935102	314.558
689.5000	-5.60582	-0.00491139	0.0923569	314.951
689.0000	-5.79844	-0.00494173	0.0907357	315.327
688.5000	-5.78125	-0.00497675	0.0889381	315.67
688.0000	-5.65273	-0.00501039	0.0877761	315.995
687.5000	-5.78423	-0.00500591	0.0872173	316.303
687.0000	-5.57466	-0.00501801	0.0869256	316.592
686.5000	-5.38558	-0.0050413	0.0864404	316.888
686.0000	-5.37651	-0.00505989	0.0860986	317.183
685.5000	-5.28283	-0.00507715	0.0857877	317.491
685.0000	-5.18432	-0.00508951	0.0859002	317.802
684.5000	-5.5051	-0.00512174	0.0852941	318.098
684.0000	-5.8795	-0.00513411	0.0841495	318.338
683.5000	-6.18109	-0.00515096	0.0826021	318.532
683.0000	-6.2585	-0.00515685	0.0809946	318.659
682.5000	-6.68837	-0.00518115	0.0805372	318.726
682.0000	-6.57208	-0.00520356	0.0800776	318.741
681.5000	-6.67181	-0.00519909	0.0800023	318.738
681.0000	-6.69728	-0.00523148	0.0801593	318.74
680.5000	-6.82143	-0.00525454	0.0807814	318.744
680.0000	-6.92324	-0.00526314	0.0817812	318.758
679.5000	-7.34847	-0.00527623	0.0831067	318.783
679.0000	-7.48441	-0.00530993	0.0838196	318.807
678.5000	-7.72891	-0.00533917	0.0849505	318.828
678.0000	-7.60765	-0.00534956	0.0865482	318.857
677.5000	-7.63101	-0.00533183	0.087938	318.911
677.0000	-7.86205	-0.00535726	0.0890698	318.975
676.5000	-7.87675	-0.00537427	0.0900127	319.053
676.0000	-7.74223	-0.00538878	0.0903208	319.119
675.5000	-7.51815	-0.00540421	0.0903481	319.201
675.0000	-7.61691	-0.00542815	0.0912913	319.29
674.5000	-7.38061	-0.00544704	0.0919286	319.378
674.0000	-7.34127	-0.0054649	0.0922471	319.492
673.5000	-7.34082	-0.00549391	0.0921137	319.609
673.0000	-7.19973	-0.00551175	0.0933953	319.721
672.5000	-7.28044	-0.00553032	0.0946988	319.844
672.0000	-7.29689	-0.00554926	0.094428	319.961
671.5000	-7.43535	-0.00560624	0.0948413	320.083
671.0000	-7.17527	-0.00562487	0.0948146	320.214
670.5000	-7.03049	-0.00563016	0.0954176	320.352
670.0000	-7.5598	-0.00565817	0.0948622	320.488
669.5000	-7.89511	-0.00569151	0.0944654	320.634
669.0000	-7.94126	-0.00570838	0.094798	320.772
668.5000	-8.17254	-0.00572893	0.0948487	320.908
668.0000	-8.14546	-0.0057543	0.0943458	321.083
667.5000	-8.47818	-0.00579251	0.0942396	321.253
667.0000	-8.67385	-0.00580831	0.0944465	321.405
666.5000	-8.80153	-0.0058361	0.0947253	321.528
666.0000	-9.10851	-0.00585234	0.0949699	321.643
665.5000	-9.29601	-0.00584353	0.0958261	321.728
665.0000	-9.3951	-0.00584619	0.0960034	321.81
664.5000	-9.71328	-0.00587746	0.0962755	321.882
664.0000	-9.70441	-0.00590747	0.096759	321.933
663.5000	-9.54511	-0.00589846	0.0968618	321.962
663.0000	-9.62681	-0.0059061	0.0967942	321.979
662.5000	-10.0284	-0.00593034	0.0967838	321.978
662.0000	-9.93643	-0.00593816	0.0979734	321.967
661.5000	-9.99543	-0.00597699	0.0981496	321.919
661.0000	-10.1846	-0.00601586	0.0973975	321.838
660.5000	-10.1198	-0.00604337	0.0968283	321.708
660.0000	-10.2101	-0.00604019	0.0975989	321.539
659.5000	-10.5485	-0.00607654	0.0983256	321.359
659.0000	-10.6128	-0.00608638	0.0984918	321.154
658.5000	-10.4656	-0.00611121	0.0992931	320.939
658.0000	-10.6889	-0.0061501	0.0999851	320.721
657.5000	-10.7656	-0.00619293	0.101439	320.516
657.0000	-10.9882	-0.00623992	0.102652	320.346
656.5000	-10.9509	-0.00626589	0.103539	320.171
656.0000	-11.1108	-0.00628838	0.105266	320.045
655.5000	-11.3625	-0.00630805	0.107245	319.949
655.0000	-11.4909	-0.00634199	0.108512	319.872
654.5000	-11.6116	-0.00635848	0.109412	319.842
654.0000	-11.4238	-0.00637413	0.110184	319.831
653.5000	-11.3504	-0.00636887	0.111342	319.855
653.0000	-11.7509	-0.00640078	0.113259	319.922
652.5000	-11.7609	-0.00641804	0.115656	320.033
652.0000	-12.2578	-0.00645083	0.117365	320.177
651.5000	-12.686	-0.006495	0.118659	320.358
651.0000	-12.7075	-0.00653557	0.12011	320.556
650.5000	-12.9792	-0.00655328	0.121076	320.792
650.0000	-13.308	-0.00659262	0.121594	321.023
649.5000	-13.522	-0.00663702	0.121882	321.253
649.0000	-13.5687	-0.00664614	0.122129	321.455
648.5000	-13.8832	-0.00667813	0.122135	321.651
648.0000	-14.1796	-0.00667479	0.121542	321.81
647.5000	-14.3762	-0.00669025	0.120873	321.952
647.0000	-14.7268	-0.00672597	0.120746	322.072
646.5000	-14.9544	-0.00677748	0.120933	322.149
646.0000	-15.1502	-0.00680658	0.121838	322.196
645.5000	-15.3606	-0.00689041	0.121707	322.22
645.0000	-15.7621	-0.00693513	0.121867	322.22
644.5000	-15.9152	-0.00700382	0.12203	322.205
644.0000	-16.0099	-0.00703247	0.122633	322.178
643.5000	-15.9537	-0.00706018	0.123212	322.133
643.0000	-16.2006	-0.00709572	0.123946	322.087
642.5000	-16.3326	-0.00715976	0.124468	322.015
642.0000	-16.4616	-0.00719175	0.124786	321.935
641.5000	-16.6818	-0.0072038	0.12557	321.874
641.0000	-16.968	-0.00726348	0.126374	321.807
640.5000	-17.3411	-0.00730709	0.127399	321.753
640.0000	-17.3502	-0.00733634	0.129316	321.697
639.5000	-17.7159	-0.00736912	0.131478	321.639
639.0000	-17.863	-0.00743599	0.13239	321.582
638.5000	-18.2067	-0.00745938	0.133118	321.555
638.0000	-18.3355	-0.00750076	0.134391	321.544
637.5000	-19.2214	-0.00753251	0.136597	321.532
637.0000	-19.2648	-0.00759062	0.138072	321.527
636.5000	-19.4596	-0.00762668	0.139751	321.527
636.0000	-19.6156	-0.00769444	0.141513	321.543
635.5000	-19.6796	-0.00774513	0.142929	321.567
635.0000	-20.0491	-0.00779205	0.144137	321.594
634.5000	-20.2769	-0.00783722	0.145559	321.619
634.0000	-20.8349	-0.00788587	0.147076	321.657
633.5000	-21.2035	-0.00792067	0.148448	321.684
633.0000	-21.6273	-0.00796798	0.149526	321.696
632.5000	-22.1241	-0.00802121	0.151052	321.724
632.0000	-22.4911	-0.00809131	0.151992	321.746
631.5000	-22.6998	-0.00818003	0.153329	321.771
631.0000	-23.1499	-0.00823784	0.154251	321.78
630.5000	-23.7811	-0.00828408	0.155791	321.79
630.0000	-24.2617	-0.00837318	0.158623	321.785
629.5000	-24.7079	-0.00841383	0.160013	321.781
629.0000	-25.1487	-0.00849696	0.161074	321.804
628.5000	-25.5571	-0.00855154	0.161956	321.834
628.0000	-25.918	-0.00859385	0.163046	321.879
627.5000	-26.346	-0.00865548	0.164398	321.926
627.0000	-26.6793	-0.0087163	0.166255	321.989
626.5000	-26.8948	-0.00874491	0.167702	322.077
626.0000	-27.3425	-0.0087953	0.169826	322.193
625.5000	-27.6483	-0.00887138	0.172035	322.319
625.0000	-28.0602	-0.008957	0.173888	322.468
624.5000	-28.2108	-0.00902053	0.176096	322.636
624.0000	-28.8837	-0.00911696	0.178301	322.81
623.5000	-29.4222	-0.009181	0.180065	323.023
623.0000	-29.7973	-0.00923383	0.181412	323.233
622.5000	-30.322	-0.00932749	0.183593	323.478
622.0000	-30.697	-0.00940077	0.185748	323.721
621.5000	-31.337	-0.00947227	0.18739	323.986
621.0000	-32.027	-0.00955957	0.18966	324.262
620.5000	-32.4818	-0.00959409	0.19152	324.524
620.0000	-33.1822	-0.00967015	0.19403	324.82
619.5000	-33.8481	-0.00976217	0.196878	325.161
619.0000	-34.7061	-0.00987913	0.20021	325.53
618.5000	-35.5821	-0.00996677	0.201817	325.887
618.0000	-36.7944	-0.0100755	0.202762	326.223
617.5000	-37.5143	-0.010179	0.204339	326.561
617.0000	-38.1624	-0.0102996	0.206798	326.915
616.5000	-38.9885	-0.0104117	0.20965	327.252
616.0000	-39.686	-0.0104809	0.211535	327.568
615.5000	-40.5925	-0.0105721	0.214132	327.885
615.0000	-41.6473	-0.0106787	0.216973	328.202
614.5000	-43.0246	-0.0108046	0.219312	328.515
614.0000	-44.0098	-0.0109057	0.221331	328.828
613.5000	-44.9341	-0.0109997	0.223246	329.132
613.0000	-46.0579	-0.0111305	0.226081	329.46
612.5000	-47.0809	-0.0112542	0.228716	329.773
612.0000	-47.933	-0.0113222	0.231384	330.079
611.5000	-49.3229	-0.011459	0.233641	330.37
611.0000	-50.7519	-0.0115904	0.235598	330.672
610.5000	-52.2959	-0.0117441	0.238499	330.991
610.0000	-53.2646	-0.0118885	0.241661	331.288
609.5000	-54.2544	-0.0120259	0.243269	331.591
609.0000	-55.4404	-0.0121347	0.245255	331.876
608.5000	-56.8273	-0.0122681	0.247971	332.195
608.0000	-58.5307	-0.0124015	0.250972	332.486
607.5000	-59.7076	-0.012549	0.253828	332.793
607.0000	-61.1507	-0.0127287	0.256719	333.133
606.5000	-62.3423	-0.0128887	0.260898	333.459
606.0000	-63.6455	-0.013059	0.264813	333.8
605.5000	-65.2329	-0.0132306	0.268815	334.147
605.0000	-66.4669	-0.0134033	0.272232	334.505
604.5000	-67.9021	-0.013591	0.275678	334.865
604.0000	-69.9252	-0.0137925	0.27961	335.218
603.5000	-71.6406	-0.0140114	0.28374	335.578
603.0000	-72.9921	-0.0141724	0.287576	335.937
602.5000	-74.593	-0.0143665	0.291805	336.318
602.0000	-76.5784	-0.0145453	0.296317	336.692
601.5000	-78.9142	-0.0147493	0.302891	337.106
601.0000	-81.1063	-0.0149697	0.308805	337.52
600.5000	-83.344	-0.0152053	0.313524	337.957
600.0000	-85.6027	-0.0154327	0.319145	338.394
599.5000	-87.8341	-0.0156555	0.325149	338.846
599.0000	-90.3559	-0.0158859	0.33109	339.316
598.5000	-93.1138	-0.0161502	0.337547	339.787
598.0000	-95.8931	-0.016378	0.343978	340.268
597.5000	-98.3463	-0.0166412	0.35047	340.755
597.0000	-101.234	-0.0168974	0.357413	341.264
596.5000	-104.51	-0.0171491	0.364564	341.78
596.0000	-107.509	-0.0174206	0.371715	342.332
595.5000	-110.945	-0.0177209	0.379304	342.898
595.0000	-114.198	-0.0179878	0.386759	343.456
594.5000	-117.562	-0.0182886	0.39566	344.079
594.0000	-120.849	-0.0185852	0.405059	344.753
593.5000	-124.312	-0.0188875	0.41376	345.434
593.0000	-128.427	-0.019235	0.423042	346.147
592.5000	-132.089	-0.019566	0.433431	346.909
592.0000	-136.223	-0.0199016	0.442754	347.668
591.5000	-139.869	-0.0201908	0.450973	348.398
591.0000	-143.749	-0.0205039	0.460268	349.183
590.5000	-147.409	-0.0207937	0.46935	350
590.0000	-150.869	-0.0211235	0.478729	350.877
589.5000	-154.597	-0.0214351	0.488178	351.783
589.0000	-158.505	-0.0217448	0.498686	352.707
588.5000	-162.021	-0.0220707	0.508924	353.682
588.0000	-165.932	-0.0223883	0.519477	354.681
587.5000	-169.493	-0.0226741	0.530165	355.712
587.0000	-172.861	-0.0229686	0.541102	356.809
586.5000	-176.663	-0.023271	0.550939	357.843
586.0000	-180.471	-0.023576	0.560752	358.884
585.5000	-183.267	-0.0238626	0.570543	359.901
585.0000	-186.107	-0.0241263	0.581215	360.955
584.5000	-188.721	-0.0243644	0.591212	361.949
584.0000	-190.996	-0.0246014	0.602067	363.016
583.5000	-193.055	-0.024846	0.612715	364.08
583.0000	-194.814	-0.025104	0.624237	365.19
582.5000	-196.865	-0.0253426	0.635452	366.281
582.0000	-198.531	-0.0255414	0.646342	367.319
581.5000	-199.723	-0.0257533	0.656703	368.35
581.0000	-200.769	-0.0259373	0.666584	369.356
580.5000	-201.634	-0.0261524	0.675692	370.326
580.0000	-201.754	-0.0262616	0.684588	371.229
579.5000	-202.052	-0.0263887	0.69293	372.094
579.0000	-201.734	-0.0264914	0.701426	372.902
578.5000	-201.16	-0.0265647	0.70978	373.64
578.0000	-200.205	-0.0266409	0.717954	374.347
577.5000	-198.698	-0.0266567	0.724819	375.038
577.0000	-197.36	-0.0266813	0.730994	375.616
576.5000	-195.247	-0.0266579	0.736718	376.176
576.0000	-193.051	-0.0266493	0.741999	376.659
575.5000	-190.605	-0.0266033	0.747085	377.083
575.0000	-188.97	-0.0265897	0.750535	377.425
574.5000	-186.919	-0.0265372	0.753985	377.733
574.0000	-184.172	-0.0264749	0.756788	377.958
573.5000	-181.635	-0.0263698	0.759145	378.126
573.0000	-178.984	-0.0262771	0.761406	378.249
572.5000	-176.35	-0.0261822	0.762617	378.288
572.0000	-173.273	-0.0260153	0.765076	378.294
571.5000	-170.061	-0.0259148	0.766615	378.261
571.0000	-166.716	-0.0257802	0.767475	378.144
570.5000	-163.525	-0.0256679	0.767377	377.984
570.0000	-160.354	-0.025532	0.766137	377.82
569.5000	-158.031	-0.0253715	0.765529	377.592
569.0000	-155.517	-0.0252063	0.7654	377.335
568.5000	-153.025	-0.0250753	0.764602	377.076
568.0000	-150.596	-0.0249682	0.762714	376.739
567.5000	-148.73	-0.0248446	0.76081	376.375
567.0000	-146.63	-0.0246978	0.759026	376.048
566.5000	-144.468	-0.0245675	0.757636	375.689
566.0000	-142.44	-0.0244387	0.755726	375.324
565.5000	-141.485	-0.0243613	0.753167	374.982
565.0000	-139.779	-0.0242437	0.751561	374.63
564.5000	-138.55	-0.0241443	0.750416	374.285
564.0000	-137.894	-0.0240641	0.749086	373.959
563.5000	-137.263	-0.0239665	0.747708	373.64
563.0000	-137.144	-0.0238882	0.746444	373.348
562.5000	-137.046	-0.0238172	0.745594	373.099
562.0000	-136.817	-0.0237608	0.745553	372.871
561.5000	-136.556	-0.0237001	0.745819	372.641
561.0000	-136.709	-0.0236964	0.745604	372.437
560.5000	-136.671	-0.0236422	0.745604	372.274
560.0000	-137.394	-0.0236297	0.746261	372.192
559.5000	-138.275	-0.02366	0.747195	372.142
559.0000	-139.389	-0.0236572	0.748528	372.143
558.5000	-140.723	-0.0237021	0.750382	372.179
558.0000	-141.804	-0.0237338	0.752649	372.254
557.5000	-143.361	-0.0237918	0.755457	372.38
557.0000	-144.588	-0.0238457	0.759142	372.558
556.5000	-145.884	-0.0239223	0.762714	372.79
556.0000	-147.689	-0.0240331	0.766385	373.087
555.5000	-149.306	-0.0241555	0.770773	373.455
555.0000	-151.75	-0.0242836	0.775891	373.878
554.5000	-153.192	-0.0244125	0.781063	374.325
554.0000	-154.891	-0.0245414	0.786457	374.836
553.5000	-156.743	-0.0247039	0.791737	375.323
553.0000	-158.74	-0.0248277	0.797442	375.883
552.5000	-160.807	-0.0249806	0.804088	376.492
552.0000	-162.461	-0.0251662	0.811343	377.154
551.5000	-164.262	-0.0253105	0.818651	377.819
551.0000	-165.823	-0.0254427	0.826326	378.563
550.5000	-167.125	-0.0255967	0.834699	379.323
550.0000	-168.601	-0.0257564	0.844149	380.194
549.5000	-169.781	-0.0258978	0.853168	381.056
549.0000	-171.291	-0.0260313	0.862484	381.96
548.5000	-172.393	-0.0262126	0.87156	382.91
548.0000	-173.643	-0.0263969	0.882206	383.915
547.5000	-174.838	-0.0265307	0.892076	384.91
547.0000	-175.355	-0.0266932	0.902314	385.949
546.5000	-175.128	-0.0268261	0.912276	386.992
546.0000	-175.22	-0.0269795	0.922711	388.054
545.5000	-174.908	-0.0270924	0.933129	389.116
545.0000	-174.462	-0.0271887	0.942889	390.139
544.5000	-173.332	-0.0273026	0.95263	391.177
544.0000	-172.044	-0.027367	0.962587	392.227
543.5000	-170.357	-0.0274132	0.972501	393.245
543.0000	-168.271	-0.0275079	0.982779	394.252
542.5000	-165.859	-0.0275441	0.992577	395.239
542.0000	-163.539	-0.0276101	1.00146	396.184
541.5000	-160.517	-0.0276298	1.01002	397.123
541.0000	-157.397	-0.0276862	1.01863	398.011
540.5000	-153.856	-0.027659	1.02717	398.882
540.0000	-149.901	-0.0276014	1.03493	399.679
539.5000	-145.894	-0.0275212	1.04142	400.403
539.0000	-140.593	-0.0274226	1.04845	401.123
538.5000	-135.496	-0.0273234	1.05512	401.768
538.0000	-130.798	-0.0271947	1.06065	402.299
537.5000	-125.367	-0.0271038	1.06562	402.792
537.0000	-119.887	-0.0269302	1.07034	403.224
536.5000	-114.681	-0.0268069	1.07498	403.561
536.0000	-109.321	-0.0266908	1.07859	403.847
535.5000	-103.388	-0.0265487	1.08123	404.073
535.0000	-97.597	-0.0263453	1.08351	404.241
534.5000	-91.6926	-0.0261551	1.08557	404.297
534.0000	-86.3034	-0.0259873	1.08702	404.326
533.5000	-80.5527	-0.0258157	1.08788	404.304
533.0000	-75.0895	-0.0256136	1.08767	404.202
532.5000	-69.726	-0.0254733	1.08723	404.086
532.0000	-63.9809	-0.0252813	1.08733	403.908
531.5000	-58.1932	-0.0251138	1.08731	403.695
531.0000	-52.8384	-0.0249319	1.08674	403.388
530.5000	-48.0417	-0.0247458	1.08555	403.063
530.0000	-42.8042	-0.0245323	1.08411	402.693
529.5000	-37.8466	-0.024337	1.08295	402.323
529.0000	-33.232	-0.0241753	1.08142	401.922
528.5000	-29.4884	-0.0239887	1.07964	401.518
528.0000	-25.7807	-0.0238004	1.07759	401.13
527.5000	-21.8018	-0.023596	1.07509	400.694
527.0000	-17.9879	-0.0233751	1.0725	400.198
526.5000	-14.4825	-0.0232379	1.07019	399.725
526.0000	-10.6512	-0.0230034	1.06742	399.248
525.5000	-7.29041	-0.0228183	1.06482	398.758
525.0000	-3.87295	-0.0226418	1.0622	398.278
524.5000	-0.93696	-0.0224526	1.06072	397.839
524.0000	2.1064	-0.0223151	1.05922	397.42
523.5000	4.84359	-0.0221324	1.05734	397.01
523.0000	7.6311	-0.0219717	1.05554	396.612
522.5000	9.73476	-0.0218267	1.05393	396.269
522.0000	12.4828	-0.0216974	1.05236	395.928
521.5000	15.0736	-0.0215883	1.05102	395.621
521.0000	17.4261	-0.021448	1.04995	395.308
520.5000	19.7052	-0.021315	1.04873	395.032
520.0000	22.4624	-0.0212246	1.04708	394.782
519.5000	25.4832	-0.0211014	1.04655	394.546
519.0000	28.0527	-0.0209795	1.04676	394.35
518.5000	30.4776	-0.0208789	1.04689	394.219
518.0000	33.5481	-0.0207943	1.04739	394.108
517.5000	36.4885	-0.0207071	1.04801	394.027
517.0000	39.4024	-0.0205978	1.04899	393.954
516.5000	41.9541	-0.0204409	1.05012	393.895
516.0000	44.5362	-0.0203369	1.05076	393.854
515.5000	46.7751	-0.020238	1.05116	393.83
515.0000	49.7134	-0.0201343	1.05177	393.796
514.5000	53.0381	-0.0200165	1.05267	393.772
514.0000	55.9685	-0.0198845	1.05378	393.735
513.5000	59.1096	-0.0197654	1.05476	393.693
513.0000	62.7614	-0.0196209	1.05546	393.652
512.5000	66.5409	-0.0194951	1.05629	393.632
512.0000	70.37	-0.0193422	1.05768	393.581
511.5000	73.3103	-0.0192411	1.05878	393.517
511.0000	76.7556	-0.0191305	1.05874	393.394
510.5000	79.992	-0.0189834	1.05814	393.213
510.0000	83.5439	-0.0187928	1.05765	392.985
509.5000	87.2921	-0.0186401	1.05711	392.693
509.0000	91.0536	-0.018508	1.05618	392.361
508.5000	95.1373	-0.0183399	1.05466	392.011
508.0000	99.1911	-0.0181516	1.05264	391.619
507.5000	103.794	-0.0179719	1.04978	391.195
507.0000	107.585	-0.0177976	1.04683	390.749
506.5000	110.843	-0.0176489	1.04357	390.278
506.0000	113.908	-0.0175036	1.04049	389.779
505.5000	117.85	-0.0173156	1.03658	389.194
505.0000	120.951	-0.0171533	1.03233	388.584
504.5000	124.036	-0.016988	1.02705	387.841
504.0000	127.518	-0.0168038	1.02148	387.035
503.5000	130.506	-0.0166306	1.01516	386.197
503.0000	133.826	-0.0163913	1.00813	385.247
502.5000	137.297	-0.0162122	1.00147	384.333
502.0000	139.873	-0.0160107	0.994259	383.333
501.5000	141.905	-0.0158412	0.986803	382.307
501.0000	143.79	-0.0156516	0.978124	381.131
500.5000	146.053	-0.0154373	0.969048	379.815
500.0000	148.071	-0.0152351	0.959917	378.317
499.5000	149.94	-0.0150607	0.950187	376.65
499.0000	151.513	-0.0148406	0.9403	374.748
498.5000	152.619	-0.0146287	0.930533	372.861
498.0000	153.752	-0.0144411	0.921696	371.038
497.5000	154.445	-0.0142097	0.9121	369.32
497.0000	154.906	-0.0140342	0.903011	367.865
496.5000	155.098	-0.0137792	0.892851	366.425
496.0000	155.404	-0.0135551	0.882696	365.075
495.5000	155.136	-0.0133197	0.871468	363.665
495.0000	155.008	-0.0131621	0.86115	362.311
494.5000	154.481	-0.0129836	0.851039	361.009
494.0000	153.81	-0.0128113	0.841557	359.805
493.5000	153.179	-0.0126442	0.831512	358.55
493.0000	152.829	-0.0124799	0.821504	357.399
492.5000	152.221	-0.0122958	0.811761	356.262
492.0000	151.289	-0.0121164	0.80102	355.088
491.5000	150.041	-0.0119441	0.79089	354.043
491.0000	148.721	-0.0117514	0.781666	353.096
490.5000	147.419	-0.0116127	0.772121	352.182
490.0000	146.199	-0.0114377	0.76135	351.176
489.5000	144.966	-0.0112747	0.750606	350.029
489.0000	143.812	-0.0111534	0.740094	348.595
488.5000	142.469	-0.0110374	0.730433	347.145
488.0000	141.508	-0.0109122	0.72082	345.622
487.5000	140.085	-0.0107755	0.71292	344.06
487.0000	138.936	-0.0106081	0.706066	342.66
486.5000	137.339	-0.0104705	0.699548	341.374
486.0000	136.078	-0.0103109	0.69304	340.325
485.5000	134.987	-0.0101991	0.686825	339.397
485.0000	133.338	-0.0100673	0.680198	338.488
484.5000	131.665	-0.00994774	0.67382	337.646
484.0000	129.746	-0.00983954	0.666682	336.824
483.5000	128.354	-0.00969694	0.660261	336.107
483.0000	126.888	-0.00959605	0.653233	335.43
482.5000	125.565	-0.00950595	0.647018	334.848
482.0000	124.538	-0.00940734	0.640577	334.313
481.5000	123.269	-0.00931908	0.634205	333.781
481.0000	121.806	-0.00922366	0.628328	333.266
480.5000	120.76	-0.00914536	0.621406	332.626
480.0000	119.861	-0.00907591	0.613654	331.626
479.5000	118.423	-0.0089864	0.607802	330.463
479.0000	117.262	-0.00888139	0.602975	329.496
478.5000	115.876	-0.00879496	0.598267	328.852
478.0000	114.751	-0.00869622	0.591472	328.145
477.5000	113.663	-0.00862795	0.584393	327.308
477.0000	112.296	-0.00852776	0.576703	326.248
476.5000	111.164	-0.00841745	0.568606	324.825
476.0000	110.222	-0.00831069	0.561036	323.305
475.5000	108.955	-0.00818889	0.553361	321.651
475.0000	108.088	-0.0081038	0.545726	319.836
474.5000	107.156	-0.00798833	0.53871	317.923
474.0000	106.244	-0.0078754	0.532649	315.938
473.5000	104.834	-0.00773102	0.528531	314.011
473.0000	103.607	-0.00760644	0.5251	312.487
472.5000	102.184	-0.00746427	0.520036	311.361
472.0000	100.523	-0.00732147	0.516167	310.729
471.5000	98.9175	-0.00720067	0.510888	310.467
471.0000	97.8788	-0.00710735	0.504625	310.25
470.5000	96.7738	-0.00703426	0.496619	309.693
470.0000	95.5078	-0.00696364	0.489369	308.85
469.5000	94.4998	-0.00686511	0.483283	307.849
469.0000	93.2917	-0.00675847	0.478149	306.819
468.5000	91.5984	-0.00664263	0.473038	305.975
468.0000	90.0981	-0.00650749	0.468098	305.447
467.5000	88.8773	-0.00639707	0.463585	305.195
467.0000	87.1685	-0.00627299	0.459428	305.157
466.5000	85.499	-0.00616382	0.455181	305.369
466.0000	84.0084	-0.00604161	0.449545	305.775
465.5000	82.4152	-0.00592479	0.442215	306.244
465.0000	80.8748	-0.00582666	0.432612	306.429
464.5000	79.5318	-0.00573007	0.423246	306.126
464.0000	78.2194	-0.00561274	0.416338	305.591
463.5000	76.6777	-0.00551611	0.410642	305.065
463.0000	75.1891	-0.00542234	0.405287	304.599
462.5000	73.6696	-0.00531436	0.399675	304.258
462.0000	72.2909	-0.00519356	0.394447	304.093
461.5000	70.6059	-0.00509458	0.38976	304.068
461.0000	69.1078	-0.00501918	0.384632	304.132
460.5000	67.6806	-0.00493442	0.378588	304.181
460.0000	66.1998	-0.00484407	0.37243	304.097
459.5000	64.7178	-0.00477181	0.366183	303.892
459.0000	63.5235	-0.00469843	0.359229	303.449
458.5000	62.2515	-0.00460509	0.35324	302.831
458.0000	61.0349	-0.0045285	0.348807	302.22
457.5000	59.6348	-0.00444858	0.344761	301.738
457.0000	58.5274	-0.00436589	0.339336	301.209
456.5000	56.9894	-0.00427555	0.333516	300.464
456.0000	55.5593	-0.00418583	0.328647	299.664
455.5000	54.2836	-0.0041047	0.325008	299.065
455.0000	53.0961	-0.00402448	0.320977	298.758
454.5000	51.7687	-0.00396072	0.316302	298.501
454.0000	50.4743	-0.00387979	0.31181	298.197
453.5000	49.2904	-0.00379131	0.307441	297.88
453.0000	48.4406	-0.0037376	0.303221	297.57
452.5000	47.3689	-0.00364333	0.299277	297.267
452.0000	46.3444	-0.00355562	0.295586	296.936
451.5000	45.431	-0.00347397	0.291825	296.587
451.0000	44.5427	-0.00338693	0.288794	296.291
450.5000	43.4804	-0.00331384	0.286224	296.16
450.0000	42.4736	-0.00325756	0.283115	296.144
449.5000	41.5205	-0.00319827	0.279074	296.027
449.0000	40.4313	-0.00316384	0.275874	295.826
448.5000	39.4826	-0.00311694	0.274383	295.789
448.0000	38.4929	-0.00304692	0.272598	296.009
447.5000	37.6027	-0.00299122	0.268716	296.214
447.0000	37.012	-0.00293865	0.263662	296.11
446.5000	36.0821	-0.00287223	0.259731	295.82
446.0000	35.3883	-0.00278098	0.25681	295.454
445.5000	34.7276	-0.00271951	0.25399	295.049
445.0000	33.9504	-0.00266849	0.250842	294.585
444.5000	33.0577	-0.0026099	0.24785	294.081
444.0000	32.2572	-0.00256098	0.245018	293.613
443.5000	31.4302	-0.00251141	0.242201	293.186
443.0000	30.534	-0.00246774	0.239496	292.854
442.5000	29.7791	-0.00242025	0.236554	292.555
442.0000	29.0698	-0.00235709	0.234007	292.292
441.5000	28.4852	-0.00230054	0.231451	292.007
441.0000	27.9627	-0.00223066	0.229148	291.737
440.5000	27.5129	-0.00215481	0.227007	291.493
440.0000	26.8836	-0.00208431	0.224648	291.241
439.5000	26.3119	-0.0020194	0.222294	290.987
439.0000	25.6926	-0.00197037	0.21986	290.711
438.5000	25.1087	-0.00190515	0.218028	290.437
438.0000	24.2333	-0.00186091	0.215434	290.155
437.5000	23.53	-0.00181584	0.212165	289.915
437.0000	22.9725	-0.00176103	0.208807	289.716
436.5000	22.3273	-0.0017048	0.206422	289.599
436.0000	21.7291	-0.00165738	0.204148	289.482
435.5000	21.0443	-0.00160344	0.201704	289.342
435.0000	20.4966	-0.00154499	0.199032	289.143
434.5000	19.7413	-0.00148939	0.197078	288.917
434.0000	19.2572	-0.00145788	0.195148	288.693
433.5000	18.6974	-0.00142703	0.193086	288.466
433.0000	18.3674	-0.00139965	0.191196	288.242
432.5000	17.8691	-0.0013617	0.189194	288.014
432.0000	17.4918	-0.00132062	0.187042	287.782
431.5000	16.7518	-0.00129546	0.184934	287.542
431.0000	16.0727	-0.00122925	0.183153	287.316
430.5000	15.4748	-0.00118737	0.181036	287.093
430.0000	15.1438	-0.00114613	0.179491	286.883
429.5000	14.8719	-0.00110877	0.178058	286.659
429.0000	14.4765	-0.00106979	0.17686	286.436
428.5000	13.8082	-0.00104449	0.176116	286.206
428.0000	13.5037	-0.00100346	0.174946	285.977
427.5000	13.0496	-0.000976082	0.173695	285.772
427.0000	12.7623	-0.000959163	0.172382	285.559
426.5000	12.3467	-0.000949887	0.17099	285.316
426.0000	11.9686	-0.0009231	0.169657	285.039
425.5000	11.6407	-0.000900472	0.168789	284.721
425.0000	11.2594	-0.000874483	0.167817	284.409
424.5000	10.7313	-0.000849112	0.166786	284.175
424.0000	10.4131	-0.000834059	0.16565	283.992
423.5000	9.96749	-0.000814031	0.164743	283.864
423.0000	9.65391	-0.000794231	0.164036	283.742
422.5000	9.60432	-0.00078523	0.16335	283.624
422.0000	9.3045	-0.000749983	0.162952	283.522
421.5000	8.7363	-0.000738278	0.161888	283.417
421.0000	8.19923	-0.000715029	0.161468	283.323
420.5000	8.09189	-0.000696738	0.160746	283.233
420.0000	7.8741	-0.000675042	0.159973	283.133
419.5000	7.46017	-0.000670472	0.15945	283.033
419.0000	7.26462	-0.000635214	0.158937	282.937
418.5000	7.08155	-0.000610861	0.158639	282.871
418.0000	6.77023	-0.000594526	0.158856	282.853
417.5000	6.74136	-0.000569328	0.158875	282.877
417.0000	6.49975	-0.000549624	0.158453	282.943
416.5000	6.25714	-0.000530259	0.158422	282.988
416.0000	6.03673	-0.000516144	0.158501	282.97
415.5000	5.9675	-0.000494799	0.158697	282.903
415.0000	5.65319	-0.000502551	0.158675	282.842
414.5000	5.3393	-0.000480768	0.158541	282.768
414.0000	5.10605	-0.00048478	0.15873	282.71
413.5000	4.77871	-0.000482826	0.158899	282.647
413.0000	4.97273	-0.000481688	0.159343	282.614
412.5000	4.83082	-0.000466	0.15954	282.589
412.0000	4.77035	-0.000463085	0.159942	282.581
411.5000	4.71416	-0.000454542	0.160049	282.574
411.0000	4.72154	-0.000436826	0.160325	282.579
410.5000	4.55317	-0.000435652	0.160582	282.605
410.0000	4.32719	-0.000430497	0.16071	282.632
409.5000	4.23239	-0.000420088	0.160649	282.668
409.0000	4.03903	-0.00042302	0.160597	282.701
408.5000	3.96684	-0.000417582	0.160675	282.724
408.0000	3.81824	-0.00041243	0.160995	282.747
407.5000	4.02836	-0.000410535	0.161592	282.763
407.0000	3.89048	-0.000419014	0.162229	282.777
406.5000	4.04647	-0.000407227	0.162298	282.775
406.0000	4.05217	-0.00040922	0.16273	282.766
405.5000	3.94084	-0.000404309	0.162853	282.713
405.0000	4.02036	-0.000405395	0.163412	282.64
404.5000	3.88853	-0.000396031	0.163781	282.534
404.0000	3.64394	-0.000411262	0.164457	282.409
403.5000	3.62698	-0.000404115	0.165158	282.261
403.0000	3.65981	-0.000410655	0.165975	282.129
402.5000	3.43431	-0.00042576	0.166808	281.977
402.0000	3.65173	-0.00042696	0.167767	281.846
401.5000	3.71018	-0.00043841	0.169193	281.727
401.0000	3.71062	-0.000448655	0.170561	281.628
400.5000	3.86783	-0.000450115	0.171686	281.567
400.0000	3.87848	-0.000451616	0.172644	281.546
399.5000	3.69724	-0.000472209	0.173333	281.544
399.0000	3.68149	-0.000473239	0.174346	281.553
398.5000	3.67961	-0.000466272	0.175451	281.58
398.0000	3.70074	-0.000465422	0.176614	281.631
397.5000	3.69178	-0.000484301	0.177673	281.733
397.0000	3.68264	-0.000500596	0.178609	281.862
396.5000	3.79354	-0.000511045	0.179577	282.025
396.0000	3.60622	-0.000535714	0.181146	282.226
395.5000	3.70004	-0.000539081	0.182614	282.445
395.0000	3.46433	-0.000552646	0.183748	282.697
394.5000	3.42084	-0.000559485	0.184513	282.973
394.0000	3.31726	-0.000581424	0.185233	283.262
393.5000	3.18144	-0.000598029	0.186092	283.556
393.0000	3.12689	-0.000614703	0.186673	283.853
392.5000	3.12351	-0.00062383	0.187545	284.11
392.0000	3.03976	-0.000650558	0.188338	284.344
391.5000	2.99322	-0.000673399	0.189674	284.549
391.0000	2.99385	-0.000687431	0.191166	284.764
390.5000	3.07887	-0.000731215	0.192427	284.972
390.0000	2.94104	-0.000767451	0.193256	285.168
389.5000	2.94799	-0.000800158	0.194317	285.344
389.0000	3.0787	-0.000801222	0.195679	285.493
388.5000	2.94779	-0.000823461	0.197332	285.651
388.0000	2.92489	-0.000831715	0.198845	285.804
387.5000	2.96253	-0.00084865	0.199982	285.948
387.0000	2.90047	-0.000859165	0.20161	286.082
386.5000	2.77005	-0.000870279	0.203573	286.201
386.0000	3.09635	-0.000883297	0.205717	286.31
385.5000	3.13687	-0.000903046	0.207635	286.408
385.0000	3.23035	-0.000918489	0.209488	286.503
384.5000	3.36543	-0.000928242	0.211772	286.607
384.0000	3.31889	-0.000965259	0.213984	286.71
383.5000	3.50202	-0.000991423	0.216211	286.816
383.0000	3.36431	-0.000998389	0.218023	286.924
382.5000	3.44578	-0.00100694	0.219792	287.015
382.0000	3.4439	-0.000999646	0.221648	287.111
381.5000	3.57284	-0.00102621	0.224039	287.219
381.0000	3.65689	-0.00101578	0.226126	287.337
380.5000	3.57133	-0.00104146	0.227947	287.463
380.0000	3.71411	-0.00106631	0.229868	287.591
379.5000	3.55206	-0.00110389	0.231699	287.716
379.0000	3.50448	-0.00111756	0.233255	287.823
378.5000	3.71341	-0.00113336	0.234157	287.932
378.0000	3.86666	-0.00116151	0.234509	288.042
377.5000	3.5814	-0.00118509	0.235135	288.168
377.0000	3.60445	-0.00119209	0.236068	288.273
376.5000	3.46405	-0.00121436	0.236822	288.363
376.0000	3.26515	-0.00125365	0.237018	288.444
375.5000	3.1708	-0.00127295	0.237437	288.527
375.0000	2.94491	-0.00130246	0.238542	288.615
374.5000	2.99573	-0.00132388	0.239661	288.701
374.0000	2.82605	-0.0013568	0.240946	288.779
373.5000	2.78848	-0.00136385	0.241989	288.852
373.0000	2.57094	-0.00139333	0.243028	288.93
372.5000	2.42263	-0.00142172	0.244142	289.002
372.0000	2.36175	-0.00144663	0.245429	289.087
371.5000	2.34317	-0.00145331	0.246525	289.169
371.0000	2.33991	-0.00146624	0.247587	289.258
370.5000	2.40659	-0.00149556	0.248868	289.374
370.0000	2.29142	-0.00152795	0.250527	289.492
369.5000	2.26651	-0.00154673	0.252083	289.598
369.0000	2.35694	-0.0015789	0.253337	289.703
368.5000	2.41311	-0.00161801	0.254741	289.847
368.0000	2.44049	-0.00165217	0.25675	290.007
367.5000	2.4705	-0.00166224	0.259084	290.173
367.0000	2.55872	-0.00166545	0.261117	290.333
366.5000	2.43246	-0.00167115	0.262471	290.487
366.0000	2.42816	-0.00168895	0.263761	290.67
365.5000	2.55463	-0.00171837	0.265432	290.845
365.0000	2.56749	-0.00174966	0.267549	291.028
364.5000	2.50271	-0.00177726	0.269141	291.202
364.0000	2.37515	-0.00178604	0.270307	291.372
363.5000	2.27511	-0.001803	0.27094	291.546
363.0000	2.23147	-0.00183279	0.271828	291.724
362.5000	2.07885	-0.00184831	0.2731	291.902
362.0000	1.84801	-0.00188053	0.27454	292.078
361.5000	1.85285	-0.00191222	0.275933	292.264
361.0000	1.89538	-0.00192865	0.277664	292.44
360.5000	1.82269	-0.00193099	0.279642	292.611
360.0000	1.70209	-0.00195068	0.281557	292.783
359.5000	1.56112	-0.00197057	0.283192	292.959
359.0000	1.51748	-0.00201562	0.284367	293.126
358.5000	1.58391	-0.00204088	0.285632	293.304
358.0000	1.72093	-0.00206753	0.287176	293.472
357.5000	1.51329	-0.00210643	0.288902	293.651
357.0000	1.48395	-0.0021422	0.290197	293.841
356.5000	1.41235	-0.0021608	0.291331	294.009
356.0000	1.37909	-0.00219469	0.29285	294.178
355.5000	1.5019	-0.00221846	0.294812	294.362
355.0000	1.23591	-0.00224515	0.296879	294.53
354.5000	1.39889	-0.0022802	0.298972	294.711
354.0000	1.32044	-0.00231647	0.30084	294.898
353.5000	1.43307	-0.00234264	0.302597	295.076
353.0000	1.30807	-0.00234999	0.304826	295.277
352.5000	1.28304	-0.00238663	0.30708	295.493
352.0000	1.05082	-0.00243616	0.308816	295.713
351.5000	1.0385	-0.00246219	0.31013	295.915
351.0000	1.14139	-0.00248089	0.311171	296.096
350.5000	1.06827	-0.00248571	0.312832	296.288
350.0000	0.842674	-0.00251983	0.314896	296.502
349.5000	0.727891	-0.0025423	0.316734	296.718
349.0000	0.819372	-0.00256836	0.3186	296.945
348.5000	0.756991	-0.00259982	0.320468	297.166
348.0000	0.537386	-0.00264807	0.322439	297.379
347.5000	0.433957	-0.00268231	0.32448	297.594
347.0000	0.230483	-0.00272194	0.326581	297.8
346.5000	0.23388	-0.00276003	0.328716	298.024
346.0000	0.20381	-0.00280149	0.33076	298.245
345.5000	0.202976	-0.00284128	0.332676	298.458
345.0000	0.0245585	-0.0028882	0.334873	298.694
344.5000	0.0133365	-0.00291695	0.336767	298.904
344.0000	-0.204824	-0.00293901	0.338683	299.115
343.5000	-0.150048	-0.00296408	0.340824	299.321
343.0000	-0.376343	-0.00300558	0.343242	299.546
342.5000	-0.517379	-0.00306091	0.345679	299.79
342.0000	-0.870293	-0.00310632	0.348051	300.041
341.5000	-0.960082	-0.00315397	0.350119	300.255
341.0000	-1.12229	-0.00320097	0.352042	300.465
340.5000	-1.28635	-0.0032393	0.353829	300.69
340.0000	-1.48456	-0.0032696	0.355797	300.929
339.5000	-1.49387	-0.00332656	0.357766	301.175
339.0000	-1.80522	-0.00337206	0.359598	301.428
338.5000	-1.83728	-0.00341355	0.361578	301.682
338.0000	-2.06965	-0.0034595	0.363883	301.946
337.5000	-2.38436	-0.00349315	0.365672	302.207
337.0000	-2.41374	-0.00354185	0.367745	302.482
336.5000	-2.7275	-0.00358715	0.369765	302.743
336.0000	-2.81246	-0.00364374	0.371962	303.021
335.5000	-2.9347	-0.00369815	0.373835	303.295
335.0000	-3.18531	-0.0037442	0.3754	303.569
334.5000	-3.35649	-0.00378949	0.37767	303.871
334.0000	-3.53251	-0.00384112	0.380074	304.164
333.5000	-3.29225	-0.00390566	0.382684	304.495
333.0000	-3.70276	-0.00395544	0.384896	304.822
332.5000	-3.88131	-0.00401702	0.387148	305.127
332.0000	-3.99272	-0.00404632	0.389573	305.433
331.5000	-4.00249	-0.00409872	0.391946	305.744
331.0000	-4.18024	-0.00414257	0.39481	306.079
330.5000	-4.21874	-0.00418165	0.397364	306.389
330.0000	-4.31887	-0.004239	0.399816	306.699
329.5000	-4.39104	-0.00429484	0.402629	307.029
329.0000	-4.65516	-0.00435869	0.406325	307.372
328.5000	-4.91845	-0.0044211	0.409594	307.68
328.0000	-4.94883	-0.00449573	0.412529	307.971
327.5000	-5.27755	-0.00455807	0.415323	308.255
327.0000	-5.41235	-0.00461895	0.418514	308.542
326.5000	-5.3998	-0.00469109	0.422105	308.872
326.0000	-5.64852	-0.00475266	0.425435	309.2
325.5000	-5.67911	-0.00481253	0.428197	309.515
325.0000	-5.92324	-0.00486515	0.430689	309.83
324.5000	-5.96044	-0.00492136	0.433657	310.159
324.0000	-6.06249	-0.00498333	0.437017	310.508
323.5000	-6.2666	-0.00505619	0.440566	310.85
323.0000	-6.80455	-0.00511517	0.44416	311.203
322.5000	-6.7768	-0.00517024	0.447347	311.554
322.0000	-6.95789	-0.00522083	0.450473	311.898
321.5000	-7.35853	-0.00528962	0.453967	312.249
321.0000	-7.86237	-0.00535087	0.457203	312.607
320.5000	-7.91056	-0.00539353	0.460035	312.956
320.0000	-8.1724	-0.00544022	0.462661	313.293
319.5000	-8.22244	-0.00545887	0.465781	313.657
319.0000	-8.32744	-0.00550408	0.469359	314.054
318.5000	-8.56339	-0.00553018	0.47327	314.459
318.0000	-8.99501	-0.00557787	0.476983	314.824
317.5000	-9.37294	-0.00562507	0.480495	315.169
317.0000	-9.67062	-0.00567263	0.484497	315.544
316.5000	-9.94781	-0.00572624	0.488549	315.898
316.0000	-10.2433	-0.00577053	0.492636	316.29
315.5000	-10.5048	-0.00579976	0.496073	316.68
315.0000	-10.5473	-0.00586347	0.499523	317.113
314.5000	-10.9582	-0.00591416	0.503243	317.55
314.0000	-11.3686	-0.00597839	0.507232	317.987
313.5000	-11.5444	-0.00602217	0.511269	318.436
313.0000	-11.8634	-0.00606145	0.515712	318.937
312.5000	-12.2536	-0.00614259	0.51996	319.436
312.0000	-12.3772	-0.00616805	0.52442	319.952
311.5000	-12.5693	-0.00621484	0.529428	320.483
311.0000	-12.8953	-0.00627296	0.53447	321.035
310.5000	-13.1474	-0.00630595	0.539678	321.634
310.0000	-13.5739	-0.00635727	0.544174	322.196
309.5000	-13.4875	-0.00639035	0.549444	322.809
309.0000	-13.6035	-0.0064212	0.555375	323.476
308.5000	-13.8392	-0.00646872	0.561258	324.145
308.0000	-14.0065	-0.00649514	0.567119	324.787
307.5000	-13.9151	-0.00654718	0.573894	325.512
307.0000	-13.9489	-0.00657224	0.580124	326.179
306.5000	-14.14	-0.00660878	0.587075	326.889
306.0000	-14.094	-0.00664027	0.593769	327.589
305.5000	-13.8493	-0.00667846	0.600829	328.336
305.0000	-13.9694	-0.00672574	0.607755	329.045
304.5000	-13.3448	-0.0067376	0.614926	329.802
304.0000	-12.9073	-0.00674977	0.622466	330.576
303.5000	-13.0151	-0.00677004	0.629643	331.318
303.0000	-12.5685	-0.00680632	0.636799	332.104
302.5000	-12.4434	-0.00680896	0.644105	332.889
302.0000	-12.2209	-0.00682068	0.651327	333.675
301.5000	-11.9468	-0.00679823	0.658704	334.461
301.0000	-11.5474	-0.00678322	0.665457	335.212
300.5000	-10.9687	-0.00677538	0.671318	335.877
300.0000	-10.493	-0.00673081	0.678052	336.656
299.5000	-10.0933	-0.00669032	0.684307	337.394
299.0000	-9.68358	-0.00665611	0.690836	338.116
298.5000	-9.32095	-0.00660127	0.697883	338.855
298.0000	-8.74907	-0.00653164	0.703823	339.54
297.5000	-8.07478	-0.00645844	0.709822	340.238
297.0000	-7.39344	-0.00635653	0.715334	340.865
296.5000	-6.45304	-0.00628069	0.720468	341.475
296.0000	-6.08785	-0.0062027	0.725626	342.062
295.5000	-5.56787	-0.00614338	0.730702	342.62
295.0000	-4.9243	-0.00601753	0.735506	343.169
294.5000	-4.3505	-0.00593229	0.740474	343.748
294.0000	-3.5302	-0.00584002	0.74556	344.351
293.5000	-2.93521	-0.0057786	0.750024	344.868
293.0000	-2.26877	-0.00571071	0.754925	345.447
292.5000	-2.11508	-0.00561761	0.760126	346.044
292.0000	-1.57722	-0.00553971	0.764887	346.598
291.5000	-1.24094	-0.0054479	0.769914	347.152
291.0000	-0.740377	-0.00535682	0.774808	347.708
290.5000	-0.191607	-0.0052599	0.779487	348.301
290.0000	0.239034	-0.00517824	0.783895	348.861
289.5000	0.417385	-0.00509401	0.788333	349.401
289.0000	0.548847	-0.00501367	0.792922	349.943
288.5000	0.74502	-0.0049416	0.797787	350.524
288.0000	1.04287	-0.00484241	0.802319	351.108
287.5000	1.1611	-0.00475663	0.807335	351.76
287.0000	1.55432	-0.00468544	0.812734	352.434
286.5000	1.79041	-0.00458365	0.81835	353.078
286.0000	2.24845	-0.00451276	0.823526	353.704
285.5000	2.35086	-0.00442656	0.828475	354.325
285.0000	2.86564	-0.00429022	0.833851	354.987
284.5000	3.27618	-0.00420055	0.83888	355.594
284.0000	3.45952	-0.00409138	0.844609	356.262
283.5000	3.78851	-0.00400528	0.850499	356.96
283.0000	4.36294	-0.00391139	0.855824	357.632
282.5000	4.87658	-0.0038168	0.861675	358.368
282.0000	5.25873	-0.00371305	0.868134	359.139
281.5000	5.54849	-0.00364008	0.874518	359.896
281.0000	5.88098	-0.00353816	0.880989	360.676
280.5000	6.18489	-0.00344092	0.887902	361.542
280.0000	6.04758	-0.00334451	0.895394	362.45
279.5000	6.30003	-0.0032837	0.903321	363.375
279.0000	6.65192	-0.00318249	0.911121	364.297
278.5000	7.01187	-0.00309958	0.919201	365.313
278.0000	7.53323	-0.0030123	0.927435	366.412
277.5000	7.2738	-0.00293038	0.935359	367.44
277.0000	7.56376	-0.00286038	0.944443	368.557
276.5000	7.505	-0.00282931	0.954046	369.723
276.0000	7.40122	-0.00275517	0.962771	370.807
275.5000	7.75049	-0.00271949	0.97254	372.069
275.0000	7.65489	-0.00265031	0.983012	373.396
274.5000	7.42449	-0.00264152	0.994068	374.782
274.0000	7.15598	-0.00260859	1.00638	376.282
273.5000	6.87946	-0.00260541	1.01786	377.677
273.0000	6.0386	-0.00258667	1.03029	379.213
272.5000	5.63513	-0.00256703	1.04311	380.812
272.0000	5.4011	-0.00256703	1.05655	382.499
271.5000	4.78106	-0.00257939	1.07108	384.34
271.0000	4.42012	-0.00264766	1.08523	386.171
270.5000	3.20147	-0.00262082	1.0999	388.067
270.0000	2.18884	-0.00266204	1.11524	390.041
269.5000	1.06955	-0.00265917	1.13138	392.091
269.0000	0.123091	-0.00268221	1.14727	394.137
268.5000	-0.67412	-0.00273824	1.16427	396.375
268.0000	-1.54729	-0.00274816	1.18184	398.686
267.5000	-3.39712	-0.00284346	1.2002	401.072
267.0000	-4.82199	-0.00290819	1.21997	403.633
266.5000	-6.46533	-0.00297622	1.23995	406.27
266.0000	-9.16731	-0.00303463	1.25807	408.703
265.5000	-11.0314	-0.00310321	1.27704	411.33
265.0000	-13.0469	-0.00324305	1.2975	414.153
264.5000	-16.4025	-0.00340595	1.31733	416.893
264.0000	-18.8484	-0.00355363	1.33743	419.692
263.5000	-22.1307	-0.00371762	1.35884	422.685
263.0000	-24.4653	-0.00381954	1.37855	425.461
262.5000	-28.5614	-0.004041	1.4006	428.602
262.0000	-31.1357	-0.00425976	1.42202	431.665
261.5000	-34.7466	-0.0044829	1.44446	434.838
261.0000	-38.3164	-0.00475963	1.4663	437.936
260.5000	-42.4921	-0.00496943	1.48974	441.295
260.0000	-47.2214	-0.00523753	1.51371	444.777
259.5000	-51.8284	-0.00557073	1.53829	448.407
259.0000	-55.1797	-0.00589403	1.56332	452.172
258.5000	-60.3162	-0.00621296	1.58964	456.11
258.0000	-64.065	-0.00648849	1.61733	460.224
257.5000	-67.7207	-0.00677929	1.6448	464.285
257.0000	-71.1684	-0.00716003	1.67503	468.761
256.5000	-75.0801	-0.00747264	1.70444	473.197
256.0000	-78.135	-0.00779819	1.73654	478.082
255.5000	-81.198	-0.00812066	1.77016	483.171
255.0000	-83.7719	-0.00843484	1.80528	488.497
254.5000	-85.2178	-0.00871491	1.83978	493.763
254.0000	-87.0011	-0.00908457	1.87522	499.218
253.5000	-89.5739	-0.00938578	1.91553	505.495
253.0000	-89.7532	-0.00955373	1.95322	511.419
252.5000	-90.0399	-0.0100451	2.01111	520.592
252.0000	-90.2286	-0.0103413	2.06086	528.552
251.5000	-88.1901	-0.0105231	2.10559	535.788
251.0000	-87.2009	-0.0105622	2.15178	543.329
250.5000	-84.2118	-0.0106642	2.19964	551.195
250.0000	-82.6005	-0.0107286	2.24667	559.011
249.5000	-79.7778	-0.0107766	2.2948	567.144
249.0000	-78.2174	-0.0107935	2.34708	576.1
248.5000	-73.603	-0.0106781	2.39879	584.994
248.0000	-69.0072	-0.0106683	2.45525	594.766
247.5000	-65.1137	-0.0105116	2.51077	604.527
247.0000	-63.5993	-0.0102562	2.57082	615.28
246.5000	-61.3083	-0.010084	2.63333	626.632
246.0000	-59.3972	-0.00979503	2.69857	638.589
245.5000	-52.7201	-0.00959254	2.76931	651.767
245.0000	-47.6036	-0.00917018	2.84248	665.636
244.5000	-43.4993	-0.00856599	2.91747	680.123
244.0000	-37.9827	-0.00809418	2.99425	695.239
243.5000	-35.4845	-0.00778731	3.06916	710.225
243.0000	-29.6655	-0.00731492	3.14525	725.735
242.5000	-27.2686	-0.00646761	3.22892	743.139
242.0000	-25.5208	-0.00589602	3.30126	758.51
241.5000	-19.4423	-0.00551179	3.38062	775.682
241.0000	-15.2233	-0.00498714	3.45142	791.299
240.5000	-10.8241	-0.00456013	3.5276	808.434
240.0000	-9.83984	-0.00398897	3.59402	823.738
239.5000	-9.1816	-0.00340537	3.6676	841.068
239.0000	-5.01579	-0.00335184	3.72783	855.572
238.5000	1.18142	-0.00270043	3.78763	870.188
238.0000	4.13481	-0.00234324	3.84542	884.71
237.5000	4.10345	-0.00189395	3.89307	896.939
237.0000	4.47652	-0.00168697	3.93835	908.858
236.5000	4.64306	-0.00140051	3.97901	919.807
236.0000	5.67735	-0.0012058	4.01346	929.304
235.5000	6.26282	-0.000766158	4.04802	939.115
235.0000	4.3887	-0.000813132	4.06811	944.991
234.5000	2.71183	-0.000782547	4.08661	950.59
234.0000	4.32517	-0.000957484	4.10356	955.864
233.5000	2.89415	-0.000823701	4.11945	961.032
233.0000	-0.824856	-0.000614914	4.13219	965.522
232.5000	-6.21074	-0.000791438	4.14096	968.941
232.0000	-9.87911	-0.000605517	4.14809	972.174
231.5000	-7.19701	-0.000500144	4.1519	974.351
231.0000	-7.27536	-0.000713935	4.15394	976.258
230.5000	-7.34511	-0.000737937	4.15417	977.677
230.0000	-11.1178	-0.000462575	4.15306	978.715

##### Extended Information
[Comments]
Sample name	5% R-JS with DT after 72 hrs 1
Comment
User
Division
Company	Labo systeme complexes hors equilibre

[Detailed Information]
Creation date	7/7/2025 5:29 PM

Data array type	Linear data array * 4
Horizontal axis	Wavelength [nm]
Vertical axis(1)	CD [mdeg]
Vertical axis(2)	LD [dOD]
Vertical axis(3)	Abs
Vertical axis(4)	HT [V]
Start	700 nm
End	230 nm
Data interval	0.5 nm
Data points	941     

[Measurement Information]
Instrument name	CD Jasco
Model name	J-1500
Serial No.	A005261638

Detector	PM-539
Detector S/N	A0052PM539
  Lock-in amp.	X mode
  HT volt	Auto

Detector	EXPML-535
Detector S/N	A0001
  Lock-in amp.	X mode
  HT volt	Auto

Accessory	PTC-517
Accessory S/N	A001361646
  Temperature	19.98 C
  Control sonsor	Holder
  Monitor sensor	Holder
  Start Mode	Keep target temperature +/-0.10 deg C while 5 seconds

Measurement date	7/7/2025 5:29 PM

Overload detect	1
Photometric mode	CD, LD, Abs, HT
Measure range	700 - 230 nm
Data pitch	0.5 nm
CD scale	200 mdeg/1.0 dOD
FL scale	200 mdeg/1.0 dOD
D.I.T.	1 sec
Bandwidth	1.00 nm
Start mode	Immediately
Scanning speed	500 nm/min
Baseline correction	Baseline
Shutter control	Auto

Concentration	50 umol/L
Solvent	water 

