TITLE	50% R-JS after DT 1
DATA TYPE	
ORIGIN	JASCO
OWNER	
DATE	25/10/16
TIME	14:40:08
SPECTROMETER/DATA SYSTEM	
LOCALE	1033
RESOLUTION	
DELTAX	-0.5
XUNITS	NANOMETERS
YUNITS	CD [mdeg]
Y2UNITS	HT [V]
Y3UNITS	ABSORBANCE
Y4UNITS	LD [dOD]
FIRSTX	  700.0000
LASTX	  300.0000
NPOINTS	     801
FIRSTY	     0.23613
MAXY	    17.94288
MINY	    -0.72647
XYDATA
700.0000	0.236125	312.202	0.000717424	-1.16104E-005
699.5000	0.173175	311.67	0.00044572	-2.75209E-005
699.0000	0.117632	311.052	-6.82271E-007	-3.03965E-005
698.5000	0.0782038	310.381	0.000867005	-4.2139E-006
698.0000	0.031033	309.698	0.00204706	-3.42637E-006
697.5000	-0.00897436	309.051	0.00356496	3.51599E-005
697.0000	-0.0407839	308.411	0.00483595	5.23458E-005
696.5000	-0.0784225	307.851	0.0070165	3.88437E-005
696.0000	-0.109339	307.319	0.00869698	2.27101E-005
695.5000	-0.130973	306.898	0.00922678	4.44946E-005
695.0000	-0.147621	306.574	0.0113969	5.80101E-005
694.5000	-0.157396	306.284	0.0124253	6.024E-005
694.0000	-0.165956	306.037	0.0137761	6.93925E-005
693.5000	-0.168401	305.815	0.0154736	6.76264E-005
693.0000	-0.180783	305.647	0.0167901	5.86182E-005
692.5000	-0.193586	305.499	0.0175548	4.27546E-005
692.0000	-0.180502	305.392	0.0191798	3.53055E-005
691.5000	-0.165601	305.362	0.0211073	5.46395E-005
691.0000	-0.151676	305.431	0.0232635	4.97318E-005
690.5000	-0.129401	305.607	0.0244709	5.77468E-005
690.0000	-0.114546	305.894	0.0255047	4.03587E-005
689.5000	-0.105162	306.227	0.0245424	1.43418E-006
689.0000	-0.112276	306.59	0.0236107	5.33543E-006
688.5000	-0.103907	306.942	0.0222194	3.40223E-006
688.0000	-0.108458	307.278	0.0214276	2.51808E-005
687.5000	-0.129539	307.586	0.0217905	3.11143E-005
687.0000	-0.156638	307.847	0.0191537	3.12158E-005
686.5000	-0.189272	308.096	0.017586	1.92634E-005
686.0000	-0.220901	308.325	0.0167999	-4.08818E-007
685.5000	-0.242663	308.565	0.0168173	8.14344E-006
685.0000	-0.266744	308.813	0.016894	3.84266E-005
684.5000	-0.275508	309.066	0.0168781	4.52053E-005
684.0000	-0.289932	309.337	0.0164811	8.35218E-005
683.5000	-0.302801	309.61	0.0160705	7.381E-005
683.0000	-0.304467	309.862	0.0146232	8.12384E-005
682.5000	-0.315311	310.053	0.0130679	8.15393E-005
682.0000	-0.340088	310.159	0.0118571	7.14346E-005
681.5000	-0.342523	310.184	0.011618	0.000114452
681.0000	-0.332526	310.16	0.0121536	0.000129976
680.5000	-0.331817	310.116	0.0123744	0.000115911
680.0000	-0.326516	310.07	0.0132771	0.00010388
679.5000	-0.306742	310.016	0.0139648	9.38525E-005
679.0000	-0.285768	309.977	0.0149803	8.753E-005
678.5000	-0.257835	309.931	0.0159138	8.62722E-005
678.0000	-0.235108	309.897	0.0172884	0.00010056
677.5000	-0.202628	309.88	0.0177648	8.24229E-005
677.0000	-0.186586	309.862	0.0180263	8.91476E-005
676.5000	-0.170833	309.856	0.0183771	8.28679E-005
676.0000	-0.170282	309.861	0.0187641	6.8316E-005
675.5000	-0.163347	309.879	0.0174449	7.226E-005
675.0000	-0.156476	309.9	0.0180586	5.5991E-005
674.5000	-0.153892	309.924	0.0186806	4.70123E-005
674.0000	-0.137464	309.962	0.0194533	3.96711E-005
673.5000	-0.128346	309.997	0.0191906	2.20736E-005
673.0000	-0.12835	310.049	0.0191668	8.01876E-006
672.5000	-0.112742	310.118	0.019172	7.66408E-007
672.0000	-0.108568	310.184	0.0195567	4.36792E-005
671.5000	-0.127004	310.258	0.0202417	5.45799E-005
671.0000	-0.130949	310.332	0.0200017	3.79965E-005
670.5000	-0.13236	310.406	0.0198591	6.59299E-005
670.0000	-0.14275	310.487	0.0187219	6.57907E-005
669.5000	-0.166335	310.586	0.0175697	6.62361E-005
669.0000	-0.168591	310.677	0.0169436	7.19791E-005
668.5000	-0.14654	310.781	0.0168927	6.67407E-005
668.0000	-0.115716	310.903	0.0167836	6.80814E-005
667.5000	-0.0808835	311.028	0.0178185	9.84328E-005
667.0000	-0.0424296	311.151	0.0176173	0.000107438
666.5000	0.00623139	311.249	0.017082	0.000120815
666.0000	0.0563987	311.357	0.0167346	0.000153433
665.5000	0.115921	311.453	0.0157933	0.000141448
665.0000	0.176336	311.533	0.016297	0.000138279
664.5000	0.219442	311.587	0.016421	0.000120574
664.0000	0.247359	311.624	0.016113	0.000115966
663.5000	0.294158	311.644	0.014722	9.68105E-005
663.0000	0.326692	311.66	0.0138068	8.72464E-005
662.5000	0.352222	311.657	0.0131338	7.16422E-005
662.0000	0.398395	311.634	0.0140901	8.07845E-005
661.5000	0.432108	311.59	0.0156651	8.49942E-005
661.0000	0.446752	311.508	0.0158542	9.40477E-005
660.5000	0.434934	311.418	0.0160278	8.24179E-005
660.0000	0.418829	311.301	0.0160161	7.85792E-005
659.5000	0.366276	311.155	0.0160654	6.25091E-005
659.0000	0.311005	310.96	0.0167902	6.03676E-005
658.5000	0.234539	310.728	0.0171317	4.52851E-005
658.0000	0.165719	310.484	0.0164823	2.96089E-005
657.5000	0.0925537	310.215	0.0171667	2.61554E-005
657.0000	0.00721917	309.974	0.0175841	3.43449E-005
656.5000	-0.0892705	309.736	0.0184892	5.82486E-005
656.0000	-0.187386	309.519	0.0191608	4.01913E-005
655.5000	-0.27941	309.321	0.0204643	5.66744E-005
655.0000	-0.364047	309.151	0.0225102	7.53022E-005
654.5000	-0.440322	309.018	0.025127	9.88394E-005
654.0000	-0.504967	308.913	0.0263834	0.000100915
653.5000	-0.565047	308.843	0.027037	9.40886E-005
653.0000	-0.610175	308.804	0.0276869	0.000113709
652.5000	-0.638421	308.803	0.027912	9.86974E-005
652.0000	-0.652234	308.831	0.0283134	8.22672E-005
651.5000	-0.651601	308.894	0.0287923	8.70236E-005
651.0000	-0.629772	308.993	0.0290148	8.61598E-005
650.5000	-0.603804	309.146	0.0288812	9.29668E-005
650.0000	-0.558607	309.322	0.0292721	9.80214E-005
649.5000	-0.531794	309.504	0.0298063	0.000138959
649.0000	-0.507049	309.685	0.029331	0.000154895
648.5000	-0.470748	309.882	0.0290301	0.000129891
648.0000	-0.440078	310.056	0.0294215	0.000114496
647.5000	-0.391245	310.213	0.0291314	0.000122768
647.0000	-0.340137	310.354	0.0291485	0.000137774
646.5000	-0.274253	310.467	0.0289583	0.00013249
646.0000	-0.204067	310.532	0.0285886	0.000131657
645.5000	-0.141967	310.567	0.0282429	0.000133851
645.0000	-0.0652021	310.57	0.0281663	0.000129448
644.5000	-0.0124152	310.564	0.0283705	0.000128029
644.0000	0.0328532	310.538	0.0282068	0.00014131
643.5000	0.0625571	310.483	0.0286805	0.000162497
643.0000	0.0873255	310.409	0.0286991	0.000170719
642.5000	0.0966315	310.322	0.0294271	0.000156901
642.0000	0.112209	310.22	0.0306975	0.000167813
641.5000	0.12928	310.122	0.0315492	0.000147302
641.0000	0.166319	310.019	0.0324929	0.000157391
640.5000	0.198745	309.91	0.0328579	0.00016676
640.0000	0.240203	309.806	0.0331777	0.000160742
639.5000	0.281703	309.7	0.0335691	0.000161733
639.0000	0.317795	309.583	0.0341732	0.000163277
638.5000	0.338098	309.477	0.0349452	0.000172127
638.0000	0.329959	309.394	0.0356749	0.000161691
637.5000	0.327668	309.318	0.0368739	0.000165518
637.0000	0.323759	309.256	0.0379377	0.000143477
636.5000	0.304017	309.2	0.038833	0.000154346
636.0000	0.30323	309.146	0.0396392	0.0001439
635.5000	0.28841	309.104	0.0406027	0.000124978
635.0000	0.281305	309.072	0.0415765	0.000127075
634.5000	0.282999	309.041	0.0422499	0.000113093
634.0000	0.308339	309.03	0.0425859	0.000121765
633.5000	0.313894	309.006	0.0422456	0.00012987
633.0000	0.319536	308.991	0.0429168	0.000127606
632.5000	0.311076	308.955	0.0431474	0.000125299
632.0000	0.291129	308.917	0.0427168	0.000127886
631.5000	0.255995	308.874	0.0425501	0.000136097
631.0000	0.228035	308.832	0.0431056	0.000126712
630.5000	0.201296	308.801	0.0437073	0.000112346
630.0000	0.183065	308.746	0.0441069	0.000104229
629.5000	0.164976	308.688	0.0450825	0.000107031
629.0000	0.158124	308.636	0.0458763	9.26226E-005
628.5000	0.160376	308.581	0.0465528	9.54423E-005
628.0000	0.168115	308.541	0.0471619	9.72218E-005
627.5000	0.165022	308.505	0.0483976	0.000100903
627.0000	0.186334	308.476	0.0489681	0.00010072
626.5000	0.199976	308.469	0.0493592	9.2747E-005
626.0000	0.214591	308.469	0.0504494	0.000107142
625.5000	0.227431	308.476	0.0519407	0.000107095
625.0000	0.249232	308.512	0.0537277	8.76723E-005
624.5000	0.270174	308.567	0.0542616	8.28606E-005
624.0000	0.289735	308.641	0.0557467	7.37027E-005
623.5000	0.326594	308.726	0.0581631	6.66274E-005
623.0000	0.388428	308.824	0.0597115	8.1154E-005
622.5000	0.440277	308.935	0.0605737	0.000100573
622.0000	0.514925	309.046	0.0604998	0.000101305
621.5000	0.587849	309.187	0.0607609	0.000102149
621.0000	0.660418	309.334	0.0609741	0.000107281
620.5000	0.741476	309.481	0.0616291	0.000117684
620.0000	0.81594	309.649	0.0624041	0.00012737
619.5000	0.881619	309.849	0.0637084	0.000119986
619.0000	0.942935	310.061	0.0644323	0.000122293
618.5000	0.988825	310.297	0.0656615	0.00014227
618.0000	1.01862	310.518	0.0664355	0.000133158
617.5000	1.02194	310.735	0.067006	0.000127233
617.0000	1.00375	310.949	0.0675612	0.000157822
616.5000	0.984838	311.148	0.0689184	0.00013878
616.0000	0.968792	311.345	0.0699964	0.000167922
615.5000	0.949632	311.544	0.071071	0.000187452
615.0000	0.913239	311.744	0.0714495	0.000202854
614.5000	0.898078	311.936	0.0720679	0.000195557
614.0000	0.870797	312.132	0.0733827	0.000167346
613.5000	0.806916	312.306	0.0751281	0.000191126
613.0000	0.753639	312.489	0.0766656	0.000197114
612.5000	0.670197	312.685	0.0779669	0.000197932
612.0000	0.580113	312.878	0.0785984	0.000197916
611.5000	0.502118	313.055	0.0793678	0.000204639
611.0000	0.443316	313.227	0.0807775	0.000208632
610.5000	0.395666	313.381	0.0816463	0.000191163
610.0000	0.372644	313.518	0.0832262	0.000200484
609.5000	0.369426	313.663	0.0848019	0.000190137
609.0000	0.391816	313.798	0.0857541	0.000165728
608.5000	0.443314	313.943	0.0871157	0.000149147
608.0000	0.502372	314.075	0.0884769	0.000144519
607.5000	0.590909	314.188	0.0902242	0.000136281
607.0000	0.676873	314.318	0.0923102	0.000140651
606.5000	0.762886	314.45	0.0943652	0.00014371
606.0000	0.848234	314.58	0.0962451	0.000145339
605.5000	0.936691	314.708	0.0977532	0.000140552
605.0000	1.03787	314.852	0.0994058	0.000139312
604.5000	1.16393	314.974	0.101683	0.000125812
604.0000	1.3096	315.079	0.103539	0.000115026
603.5000	1.46582	315.187	0.104032	0.000100944
603.0000	1.6273	315.283	0.105229	9.73767E-005
602.5000	1.81524	315.386	0.107668	0.000126641
602.0000	1.99148	315.5	0.109609	0.000122195
601.5000	2.16242	315.637	0.111664	0.000127921
601.0000	2.34601	315.772	0.113902	0.000137875
600.5000	2.52405	315.89	0.116835	0.000177833
600.0000	2.69215	315.993	0.119726	0.000187513
599.5000	2.84877	316.098	0.122192	0.000187679
599.0000	2.98943	316.209	0.124972	0.000163092
598.5000	3.1414	316.313	0.127735	0.000158558
598.0000	3.30347	316.426	0.130657	0.000166765
597.5000	3.47649	316.539	0.133534	0.000180924
597.0000	3.66539	316.657	0.137192	0.000178454
596.5000	3.87767	316.761	0.139687	0.000173245
596.0000	4.10684	316.901	0.142793	0.0001683
595.5000	4.3106	317.056	0.147392	0.000182502
595.0000	4.51306	317.201	0.153038	0.000197936
594.5000	4.73012	317.36	0.156494	0.000174736
594.0000	4.96384	317.547	0.16042	0.000167664
593.5000	5.2144	317.711	0.165274	0.000174584
593.0000	5.4541	317.9	0.170034	0.000182457
592.5000	5.70198	318.14	0.174359	0.000179146
592.0000	5.95231	318.406	0.178213	0.000177123
591.5000	6.19991	318.665	0.182359	0.000157509
591.0000	6.4823	318.946	0.186907	0.000137302
590.5000	6.78386	319.252	0.191407	0.000150677
590.0000	7.08168	319.585	0.195995	0.000145875
589.5000	7.40279	319.95	0.201306	0.000134063
589.0000	7.71381	320.325	0.206825	0.000148204
588.5000	7.99731	320.749	0.212409	0.000158509
588.0000	8.26918	321.196	0.218065	0.000157815
587.5000	8.55641	321.671	0.224152	0.000180003
587.0000	8.83814	322.194	0.229975	0.000177827
586.5000	9.11482	322.716	0.235987	0.000183087
586.0000	9.40587	323.252	0.243452	0.00018823
585.5000	9.68473	323.808	0.249614	0.000178582
585.0000	9.94582	324.391	0.256101	0.000165142
584.5000	10.2129	324.966	0.262221	0.000145423
584.0000	10.4718	325.58	0.269058	0.000133221
583.5000	10.7124	326.237	0.276391	0.000139158
583.0000	10.9598	326.945	0.284342	0.000179886
582.5000	11.1904	327.694	0.292646	0.00019039
582.0000	11.4084	328.438	0.301205	0.00021788
581.5000	11.5882	329.235	0.309924	0.000246513
581.0000	11.753	330.048	0.31852	0.000236468
580.5000	11.9264	330.86	0.326978	0.000222727
580.0000	12.0966	331.661	0.334983	0.000242811
579.5000	12.2367	332.481	0.343819	0.000254712
579.0000	12.3707	333.313	0.35266	0.000217835
578.5000	12.4859	334.149	0.361537	0.000227614
578.0000	12.5504	335.019	0.370582	0.000236954
577.5000	12.5724	335.943	0.380034	0.000242579
577.0000	12.5762	336.826	0.389569	0.000231418
576.5000	12.537	337.79	0.400567	0.000258522
576.0000	12.4844	338.725	0.411045	0.000244572
575.5000	12.4142	339.692	0.422335	0.000242895
575.0000	12.3292	340.588	0.432037	0.000218376
574.5000	12.2041	341.536	0.441836	0.000232243
574.0000	12.0706	342.45	0.451589	0.000206945
573.5000	11.8836	343.367	0.461175	0.000191538
573.0000	11.676	344.321	0.471227	0.000168621
572.5000	11.4387	345.207	0.480537	0.000204187
572.0000	11.16	346.205	0.491403	0.00018692
571.5000	10.8478	347.159	0.502463	0.000164273
571.0000	10.5116	348.139	0.512654	0.00017622
570.5000	10.1307	349.123	0.523089	0.000175236
570.0000	9.77191	350.063	0.533014	0.00017954
569.5000	9.38968	351.039	0.543373	0.000226968
569.0000	9.00521	351.974	0.553636	0.000214967
568.5000	8.64561	352.85	0.562837	0.000238355
568.0000	8.29563	353.717	0.571521	0.000239149
567.5000	7.93066	354.558	0.58086	0.000263332
567.0000	7.58438	355.358	0.589432	0.000250411
566.5000	7.24445	356.1	0.598276	0.000252166
566.0000	6.93104	356.797	0.606147	0.000245593
565.5000	6.608	357.493	0.614076	0.000258733
565.0000	6.32712	358.127	0.6215	0.000238783
564.5000	6.05721	358.746	0.628992	0.000250418
564.0000	5.85871	359.275	0.635349	0.000282924
563.5000	5.6981	359.763	0.640882	0.000279691
563.0000	5.59218	360.264	0.647221	0.000261995
562.5000	5.54598	360.681	0.65354	0.000263831
562.0000	5.57414	361.063	0.65894	0.000276463
561.5000	5.63677	361.441	0.66393	0.000269201
561.0000	5.75266	361.77	0.668315	0.000249337
560.5000	5.89498	362.055	0.672324	0.000258985
560.0000	6.08077	362.324	0.676468	0.000240003
559.5000	6.3188	362.541	0.680016	0.000249509
559.0000	6.57116	362.715	0.682785	0.000260325
558.5000	6.84482	362.849	0.68515	0.000255083
558.0000	7.14039	362.96	0.68771	0.000235693
557.5000	7.47243	363.04	0.68986	0.000262939
557.0000	7.81607	363.096	0.691555	0.000265354
556.5000	8.19357	363.12	0.693212	0.000272277
556.0000	8.58063	363.132	0.694991	0.000263102
555.5000	8.98816	363.126	0.696966	0.000214248
555.0000	9.42072	363.098	0.698359	0.000258223
554.5000	9.81449	363.047	0.699401	0.000258156
554.0000	10.2071	362.983	0.700176	0.000266064
553.5000	10.5786	362.884	0.700883	0.000260449
553.0000	10.9668	362.812	0.700974	0.000289969
552.5000	11.3429	362.747	0.701872	0.000256278
552.0000	11.7091	362.675	0.702303	0.000299951
551.5000	12.06	362.605	0.703131	0.000322258
551.0000	12.3998	362.548	0.704303	0.000299425
550.5000	12.7785	362.489	0.705538	0.00029171
550.0000	13.1452	362.443	0.706802	0.000292075
549.5000	13.5121	362.4	0.707897	0.000327104
549.0000	13.8782	362.384	0.709568	0.000333268
548.5000	14.2464	362.414	0.711242	0.000327968
548.0000	14.5975	362.458	0.713154	0.000323674
547.5000	14.9531	362.548	0.715259	0.000313219
547.0000	15.2705	362.661	0.717784	0.00031893
546.5000	15.6102	362.81	0.720071	0.000310827
546.0000	15.915	363.001	0.72277	0.000331552
545.5000	16.1943	363.212	0.725978	0.000327844
545.0000	16.4882	363.469	0.729127	0.000331715
544.5000	16.7676	363.743	0.733432	0.000340534
544.0000	17.0267	364.048	0.737943	0.000329976
543.5000	17.2666	364.383	0.742209	0.000322862
543.0000	17.4497	364.736	0.746236	0.000345505
542.5000	17.6088	365.119	0.750311	0.000403635
542.0000	17.7178	365.527	0.754898	0.000400825
541.5000	17.8137	365.993	0.760181	0.000379364
541.0000	17.8797	366.475	0.765822	0.0004077
540.5000	17.9248	366.994	0.771781	0.000399299
540.0000	17.9429	367.507	0.778012	0.000396018
539.5000	17.9225	368.036	0.784181	0.000422205
539.0000	17.8882	368.621	0.790234	0.000427101
538.5000	17.8223	369.225	0.79662	0.000431596
538.0000	17.7216	369.805	0.803166	0.00039717
537.5000	17.5767	370.414	0.80937	0.000375665
537.0000	17.3744	371.039	0.816594	0.000383747
536.5000	17.1656	371.636	0.823536	0.000332048
536.0000	16.9352	372.277	0.830384	0.000322791
535.5000	16.6725	372.908	0.837244	0.000338632
535.0000	16.3779	373.573	0.844827	0.000332011
534.5000	16.0851	374.196	0.852162	0.000281386
534.0000	15.7693	374.834	0.85908	0.000251358
533.5000	15.4541	375.475	0.865896	0.000272472
533.0000	15.1222	376.06	0.872262	0.000218557
532.5000	14.8076	376.658	0.878556	0.000219436
532.0000	14.5041	377.28	0.884915	0.000201254
531.5000	14.1802	377.902	0.890846	0.000166093
531.0000	13.8462	378.518	0.897334	0.000149421
530.5000	13.5433	379.093	0.903756	0.000149436
530.0000	13.2721	379.684	0.910628	0.000130325
529.5000	13.0092	380.237	0.917174	0.000129156
529.0000	12.7783	380.74	0.923125	9.32355E-005
528.5000	12.5633	381.25	0.928845	8.07775E-005
528.0000	12.3668	381.724	0.933954	0.000119494
527.5000	12.1864	382.182	0.939879	9.55245E-005
527.0000	12.0223	382.686	0.94575	0.00010612
526.5000	11.8744	383.145	0.950829	8.31122E-005
526.0000	11.7624	383.617	0.956655	0.00011951
525.5000	11.666	384.076	0.962336	0.000117797
525.0000	11.5875	384.536	0.967835	7.42628E-005
524.5000	11.5029	384.949	0.972622	6.28154E-005
524.0000	11.4215	385.321	0.977132	5.62131E-005
523.5000	11.3414	385.708	0.98211	6.99856E-005
523.0000	11.2688	386.066	0.987191	3.49391E-005
522.5000	11.1772	386.426	0.992223	8.23038E-005
522.0000	11.043	386.798	0.996773	6.68361E-005
521.5000	10.9114	387.186	1.00134	0.000102403
521.0000	10.7321	387.571	1.00601	0.000127356
520.5000	10.5832	387.942	1.01047	0.000163509
520.0000	10.4063	388.268	1.01464	0.00016187
519.5000	10.2246	388.604	1.01903	0.00014164
519.0000	10.0436	388.958	1.02317	0.000145807
518.5000	9.87636	389.316	1.02768	0.000138204
518.0000	9.71847	389.739	1.0325	0.00013173
517.5000	9.54058	390.172	1.03713	0.000124888
517.0000	9.36979	390.601	1.04202	0.00013738
516.5000	9.19245	391.017	1.04681	0.000171935
516.0000	9.0657	391.455	1.05211	0.000193142
515.5000	8.91253	391.893	1.05673	0.000223744
515.0000	8.77193	392.292	1.0608	0.000260852
514.5000	8.66282	392.729	1.06521	0.000275338
514.0000	8.56896	393.132	1.06972	0.000270646
513.5000	8.46792	393.543	1.07464	0.000266406
513.0000	8.39207	393.958	1.0796	0.000244858
512.5000	8.31029	394.433	1.0847	0.000240372
512.0000	8.20541	394.874	1.08953	0.000222552
511.5000	8.1268	395.292	1.09428	0.000243563
511.0000	7.96729	395.673	1.09855	0.000215901
510.5000	7.82511	396.001	1.10238	0.000229273
510.0000	7.65479	396.275	1.10618	0.000241227
509.5000	7.46397	396.499	1.1096	0.000230519
509.0000	7.24076	396.722	1.11274	0.000198465
508.5000	6.98245	396.933	1.1163	0.000221715
508.0000	6.71549	397.131	1.1191	0.000237178
507.5000	6.40827	397.294	1.12171	0.000214853
507.0000	6.06326	397.421	1.12385	0.000179643
506.5000	5.67514	397.503	1.12609	0.000179781
506.0000	5.2789	397.537	1.12759	0.000161107
505.5000	4.88416	397.529	1.12846	0.000148645
505.0000	4.47899	397.489	1.1287	0.000181589
504.5000	4.09044	397.383	1.12873	0.000138764
504.0000	3.73409	397.191	1.12846	0.000178283
503.5000	3.3689	396.953	1.1275	0.000170546
503.0000	3.06541	396.646	1.1257	0.00015682
502.5000	2.78084	396.319	1.12403	0.000177694
502.0000	2.50562	395.923	1.12208	0.000176927
501.5000	2.31884	395.48	1.11977	0.000187761
501.0000	2.14596	394.96	1.11738	0.000207638
500.5000	2.01131	394.307	1.11363	0.000179877
500.0000	1.90167	393.486	1.10931	0.000175782
499.5000	1.85005	392.493	1.10496	0.000125352
499.0000	1.8578	391.269	1.10005	0.000146668
498.5000	1.88459	389.94	1.09521	0.000147789
498.0000	1.96552	388.549	1.09026	0.000126949
497.5000	2.07582	387.163	1.08524	0.000139693
497.0000	2.19681	386.021	1.08047	0.000163774
496.5000	2.32253	385.026	1.07566	0.000163525
496.0000	2.45112	384.159	1.07018	0.000156114
495.5000	2.56639	383.263	1.06417	0.000113555
495.0000	2.69528	382.389	1.05847	0.000120264
494.5000	2.82191	381.523	1.05272	0.000106591
494.0000	2.97637	380.703	1.04726	9.19227E-005
493.5000	3.13936	379.871	1.04062	8.74012E-005
493.0000	3.3319	379.097	1.03465	8.29423E-005
492.5000	3.5381	378.31	1.02833	8.53726E-005
492.0000	3.69837	377.5	1.02144	8.3102E-005
491.5000	3.87417	376.791	1.01554	9.84072E-005
491.0000	4.0657	376.133	1.00924	0.000117136
490.5000	4.24961	375.546	1.00288	0.000124729
490.0000	4.43334	374.967	0.995985	0.000172366
489.5000	4.61013	374.286	0.988669	0.000156656
489.0000	4.79749	373.308	0.981273	0.000148977
488.5000	4.98329	372.166	0.974296	0.000186516
488.0000	5.20566	370.885	0.967352	0.00022017
487.5000	5.44354	369.516	0.960344	0.000196554
487.0000	5.73461	368.174	0.954014	0.000238016
486.5000	6.04206	366.844	0.948163	0.000263708
486.0000	6.38103	365.768	0.94272	0.000276492
485.5000	6.71315	364.843	0.937032	0.000300778
485.0000	7.01201	363.986	0.931267	0.000317481
484.5000	7.30463	363.18	0.925643	0.000309968
484.0000	7.59211	362.392	0.919794	0.00030849
483.5000	7.87953	361.683	0.913465	0.00031331
483.0000	8.14307	361.005	0.906634	0.000323184
482.5000	8.41033	360.44	0.900568	0.000366954
482.0000	8.69156	359.895	0.894618	0.000371563
481.5000	8.95	359.344	0.888548	0.000387173
481.0000	9.21284	358.846	0.882699	0.000398872
480.5000	9.47145	358.318	0.876058	0.000364567
480.0000	9.71614	357.546	0.86869	0.00036768
479.5000	9.9444	356.416	0.861457	0.000342608
479.0000	10.1674	355.18	0.855083	0.000369684
478.5000	10.3491	354.263	0.849856	0.000378878
478.0000	10.5111	353.498	0.843651	0.000379144
477.5000	10.6363	352.731	0.836778	0.000381895
477.0000	10.7455	351.71	0.829384	0.00036831
476.5000	10.8198	350.254	0.820753	0.000372534
476.0000	10.8899	348.654	0.812282	0.000390907
475.5000	10.9837	346.877	0.80408	0.000396334
475.0000	11.0636	344.951	0.795954	0.000407086
474.5000	11.1354	342.918	0.787923	0.000414245
474.0000	11.1843	340.707	0.780087	0.000388806
473.5000	11.2205	338.356	0.772908	0.000377548
473.0000	11.2818	336.249	0.766691	0.000367638
472.5000	11.3263	334.545	0.76048	0.000382491
472.0000	11.3539	333.359	0.753852	0.000366888
471.5000	11.3886	332.602	0.746647	0.000378125
471.0000	11.4258	332.241	0.740069	0.000378044
470.5000	11.4544	331.782	0.731467	0.000391896
470.0000	11.4968	331.004	0.722832	0.000388795
469.5000	11.5373	329.843	0.713977	0.000395111
469.0000	11.5813	328.451	0.705802	0.000436953
468.5000	11.6229	327.168	0.698092	0.00040036
468.0000	11.6759	326.153	0.690674	0.000394656
467.5000	11.7079	325.481	0.683134	0.000385334
467.0000	11.7508	325.058	0.676199	0.000380248
466.5000	11.7816	324.878	0.669124	0.000381177
466.0000	11.817	324.935	0.661829	0.000376915
465.5000	11.8414	325.181	0.653361	0.000376763
465.0000	11.8424	325.351	0.642516	0.0003894
464.5000	11.8383	325.068	0.630517	0.000390544
464.0000	11.8379	324.361	0.61998	0.00039203
463.5000	11.8043	323.514	0.61118	0.000396065
463.0000	11.7582	322.686	0.60278	0.000414989
462.5000	11.7036	321.934	0.594931	0.000421295
462.0000	11.6344	321.314	0.586738	0.000432128
461.5000	11.5392	320.87	0.578511	0.000450604
461.0000	11.4366	320.576	0.570127	0.000452352
460.5000	11.3176	320.311	0.560652	0.000460418
460.0000	11.1899	319.995	0.551299	0.000460777
459.5000	11.0595	319.569	0.542519	0.000476262
459.0000	10.9341	318.939	0.533616	0.000490422
458.5000	10.8045	318.093	0.524829	0.000504399
458.0000	10.6826	317.103	0.51658	0.000508094
457.5000	10.541	316.172	0.508575	0.000526274
457.0000	10.3948	315.3	0.500152	0.000530867
456.5000	10.236	314.328	0.491876	0.000530915
456.0000	10.08	313.166	0.48372	0.000533034
455.5000	9.95085	311.99	0.475785	0.000550769
455.0000	9.8273	311.147	0.468075	0.000550654
454.5000	9.71017	310.521	0.460114	0.000547959
454.0000	9.60028	309.867	0.451426	0.000536678
453.5000	9.49064	309.215	0.44303	0.000531643
453.0000	9.38718	308.574	0.435714	0.000503982
452.5000	9.27396	307.929	0.428342	0.000498689
452.0000	9.15809	307.252	0.420538	0.000497464
451.5000	9.03663	306.529	0.412233	0.000498378
451.0000	8.92224	305.851	0.404487	0.000472085
450.5000	8.79109	305.249	0.397215	0.000474607
450.0000	8.65983	304.86	0.390547	0.000473632
449.5000	8.50583	304.514	0.383543	0.000482601
449.0000	8.3478	304.057	0.376542	0.000479484
448.5000	8.1912	303.559	0.370058	0.000485373
448.0000	8.04765	303.314	0.364234	0.00047208
447.5000	7.89977	303.27	0.35814	0.000468612
447.0000	7.74634	303.09	0.350665	0.000456111
446.5000	7.58715	302.632	0.343711	0.000455103
446.0000	7.41123	301.984	0.336999	0.000470527
445.5000	7.23611	301.297	0.330986	0.000472306
445.0000	7.04767	300.535	0.324594	0.000465784
444.5000	6.84168	299.735	0.318284	0.000468426
444.0000	6.64715	298.975	0.312729	0.000462392
443.5000	6.46151	298.232	0.30744	0.000458176
443.0000	6.29067	297.61	0.30252	0.00047301
442.5000	6.11679	297.028	0.29746	0.000485585
442.0000	5.95975	296.525	0.292701	0.000489063
441.5000	5.79454	295.964	0.287487	0.00049998
441.0000	5.64853	295.46	0.282754	0.000493615
440.5000	5.50221	294.958	0.277844	0.000477484
440.0000	5.3689	294.448	0.272659	0.000461805
439.5000	5.23856	293.922	0.266966	0.00047318
439.0000	5.08781	293.362	0.260694	0.000458211
438.5000	4.94269	292.805	0.255193	0.000446381
438.0000	4.80065	292.247	0.249676	0.000438754
437.5000	4.66281	291.717	0.244183	0.000439819
437.0000	4.53424	291.206	0.238801	0.000452471
436.5000	4.41313	290.816	0.234574	0.000449511
436.0000	4.29649	290.454	0.230099	0.00044421
435.5000	4.1902	290.081	0.22516	0.000445838
435.0000	4.09791	289.673	0.220403	0.000440914
434.5000	4.00304	289.238	0.215792	0.00041198
434.0000	3.9091	288.793	0.211226	0.00041366
433.5000	3.81505	288.362	0.206862	0.00037807
433.0000	3.72535	287.901	0.202185	0.000389608
432.5000	3.62509	287.465	0.198144	0.000396562
432.0000	3.53556	287.011	0.19424	0.000422273
431.5000	3.44804	286.571	0.190676	0.000423915
431.0000	3.36934	286.132	0.186882	0.000428425
430.5000	3.28862	285.687	0.182945	0.000434706
430.0000	3.21573	285.256	0.179109	0.000431826
429.5000	3.16106	284.828	0.175499	0.000429138
429.0000	3.09674	284.395	0.17199	0.000415181
428.5000	3.04279	283.965	0.168224	0.000414831
428.0000	2.98792	283.524	0.164307	0.00039231
427.5000	2.92502	283.147	0.161032	0.00039801
427.0000	2.86189	282.752	0.157327	0.000405395
426.5000	2.79089	282.327	0.153499	0.000403462
426.0000	2.69894	281.864	0.149903	0.000420456
425.5000	2.61911	281.368	0.146345	0.000427103
425.0000	2.53781	280.862	0.143166	0.000415655
424.5000	2.46786	280.396	0.14005	0.000402383
424.0000	2.39572	280.011	0.137112	0.000387188
423.5000	2.31906	279.67	0.134054	0.000368718
423.0000	2.25062	279.34	0.131206	0.000361775
422.5000	2.17878	279.037	0.128642	0.000353585
422.0000	2.10212	278.743	0.125856	0.000362723
421.5000	2.02133	278.472	0.123251	0.000356273
421.0000	1.95178	278.206	0.12062	0.000385981
420.5000	1.86717	277.941	0.117854	0.000376297
420.0000	1.78835	277.675	0.115317	0.000373447
419.5000	1.72386	277.387	0.112856	0.000380654
419.0000	1.66058	277.104	0.110628	0.000355462
418.5000	1.61347	276.872	0.108946	0.000354215
418.0000	1.57519	276.668	0.1074	0.000342225
417.5000	1.53403	276.507	0.106047	0.000342495
417.0000	1.49722	276.389	0.104358	0.000336569
416.5000	1.4839	276.283	0.102461	0.000345014
416.0000	1.46087	276.135	0.100849	0.000349176
415.5000	1.42798	275.932	0.0989767	0.000345519
415.0000	1.38171	275.737	0.097625	0.000342361
414.5000	1.33653	275.519	0.0958808	0.000348957
414.0000	1.30433	275.329	0.0947002	0.00035156
413.5000	1.28163	275.126	0.093418	0.000332509
413.0000	1.27096	274.954	0.0918546	0.000319168
412.5000	1.26982	274.816	0.0907631	0.000313627
412.0000	1.28148	274.686	0.089892	0.00032197
411.5000	1.28013	274.564	0.0887945	0.000335905
411.0000	1.27563	274.454	0.0874254	0.000346733
410.5000	1.26221	274.361	0.0863375	0.000344649
410.0000	1.24086	274.286	0.0855796	0.000349824
409.5000	1.21534	274.226	0.0846291	0.000347295
409.0000	1.17823	274.173	0.0834915	0.000341514
408.5000	1.12667	274.116	0.0823274	0.000330051
408.0000	1.08225	274.052	0.0816209	0.000344102
407.5000	1.04685	273.986	0.0807419	0.000343127
407.0000	1.01984	273.914	0.0799823	0.00034446
406.5000	1.00643	273.825	0.07905	0.000349441
406.0000	0.99763	273.731	0.078427	0.000356427
405.5000	0.982496	273.597	0.0778551	0.000362698
405.0000	0.966538	273.455	0.0774187	0.000372814
404.5000	0.943905	273.303	0.0772648	0.000370317
404.0000	0.908526	273.105	0.0768369	0.000371428
403.5000	0.870712	272.884	0.0764105	0.000365259
403.0000	0.827865	272.66	0.0763256	0.000361705
402.5000	0.779308	272.435	0.0763325	0.000362569
402.0000	0.743224	272.241	0.0763022	0.000372307
401.5000	0.718122	272.032	0.0762069	0.000365314
401.0000	0.692967	271.86	0.0768111	0.000367611
400.5000	0.672133	271.682	0.0770636	0.000393694
400.0000	0.655372	271.543	0.0769489	0.000385698
399.5000	0.633894	271.426	0.0770506	0.000374647
399.0000	0.616106	271.339	0.0773134	0.000379528
398.5000	0.593513	271.273	0.0775929	0.000378087
398.0000	0.563098	271.237	0.0776766	0.000365048
397.5000	0.528553	271.221	0.0773176	0.000371227
397.0000	0.489237	271.237	0.0769182	0.000378579
396.5000	0.457	271.296	0.0771159	0.000392077
396.0000	0.438917	271.373	0.0770469	0.000389123
395.5000	0.421396	271.485	0.077709	0.000387223
395.0000	0.4057	271.621	0.077796	0.000390575
394.5000	0.393084	271.788	0.0779315	0.00039034
394.0000	0.378785	271.965	0.0781394	0.00038994
393.5000	0.368431	272.141	0.0781971	0.000374161
393.0000	0.346552	272.332	0.0781133	0.000390972
392.5000	0.323765	272.501	0.0779148	0.000393309
392.0000	0.296882	272.655	0.0780109	0.000397497
391.5000	0.280709	272.778	0.0785596	0.000404756
391.0000	0.269321	272.895	0.0787	0.000404718
390.5000	0.260743	272.999	0.0786681	0.000400694
390.0000	0.270693	273.107	0.0788819	0.000394495
389.5000	0.270715	273.202	0.0794563	0.000389582
389.0000	0.279086	273.293	0.0801521	0.000388644
388.5000	0.28103	273.36	0.0809626	0.000361976
388.0000	0.280046	273.444	0.0819325	0.000359801
387.5000	0.271158	273.51	0.0826394	0.000354077
387.0000	0.255702	273.575	0.0831884	0.000355777
386.5000	0.235376	273.63	0.0840782	0.000344132
386.0000	0.215943	273.683	0.0849138	0.00033958
385.5000	0.211368	273.728	0.0857053	0.000347156
385.0000	0.214411	273.774	0.0865592	0.000364978
384.5000	0.219058	273.825	0.0875093	0.000358299
384.0000	0.223955	273.874	0.0883897	0.000349459
383.5000	0.236927	273.933	0.0894892	0.000344146
383.0000	0.262791	273.996	0.0907255	0.000358449
382.5000	0.29589	274.048	0.0917792	0.00037066
382.0000	0.321973	274.105	0.0928395	0.00038115
381.5000	0.351497	274.16	0.0935954	0.000380739
381.0000	0.382771	274.222	0.0946544	0.000392036
380.5000	0.395966	274.284	0.0956267	0.000387135
380.0000	0.439088	274.354	0.0967544	0.000383463
379.5000	0.472796	274.411	0.0978147	0.000393334
379.0000	0.511411	274.471	0.09844	0.000393146
378.5000	0.553894	274.541	0.0993039	0.00039344
378.0000	0.588995	274.6	0.09985	0.000399732
377.5000	0.624102	274.646	0.100323	0.000389038
377.0000	0.655832	274.689	0.10073	0.000371242
376.5000	0.680092	274.721	0.101463	0.000355228
376.0000	0.687683	274.73	0.101888	0.000340946
375.5000	0.708178	274.743	0.102289	0.000352521
375.0000	0.734272	274.752	0.102282	0.000348321
374.5000	0.748861	274.758	0.10233	0.000323216
374.0000	0.757202	274.752	0.102598	0.000318948
373.5000	0.75274	274.752	0.103092	0.000300573
373.0000	0.734632	274.749	0.103543	0.000310519
372.5000	0.716273	274.752	0.103756	0.000292906
372.0000	0.696343	274.765	0.10396	0.000299366
371.5000	0.659148	274.777	0.104011	0.000309116
371.0000	0.630906	274.788	0.104116	0.000303806
370.5000	0.591846	274.805	0.104333	0.000308822
370.0000	0.559274	274.816	0.104329	0.000297433
369.5000	0.529011	274.844	0.104633	0.000296469
369.0000	0.496696	274.886	0.105129	0.000305779
368.5000	0.47597	274.937	0.105775	0.000314402
368.0000	0.45437	274.991	0.106112	0.000298614
367.5000	0.420968	275.055	0.106705	0.000308433
367.0000	0.389139	275.128	0.107419	0.000310938
366.5000	0.353442	275.205	0.108105	0.000319859
366.0000	0.301447	275.295	0.10861	0.000328393
365.5000	0.241231	275.372	0.109275	0.000331873
365.0000	0.185298	275.465	0.110131	0.000329824
364.5000	0.128013	275.554	0.111049	0.000323355
364.0000	0.0706434	275.624	0.111639	0.000341064
363.5000	0.0163324	275.724	0.112276	0.000331514
363.0000	-0.0411618	275.818	0.112786	0.000326713
362.5000	-0.100576	275.894	0.113237	0.000345565
362.0000	-0.154711	275.989	0.113773	0.00034503
361.5000	-0.207148	276.082	0.114367	0.000344977
361.0000	-0.262191	276.159	0.114758	0.000341863
360.5000	-0.317207	276.247	0.115275	0.000343421
360.0000	-0.384873	276.325	0.115876	0.000342843
359.5000	-0.444572	276.404	0.116366	0.000339202
359.0000	-0.502048	276.489	0.117022	0.000334963
358.5000	-0.566949	276.567	0.117768	0.0003148
358.0000	-0.61803	276.638	0.118489	0.000322652
357.5000	-0.657121	276.716	0.11925	0.000307055
357.0000	-0.677624	276.797	0.119929	0.000316701
356.5000	-0.691696	276.861	0.120088	0.000307139
356.0000	-0.71066	276.931	0.12037	0.000302943
355.5000	-0.726472	277.002	0.12095	0.000299296
355.0000	-0.72478	277.069	0.121557	0.000299147
354.5000	-0.724029	277.145	0.122384	0.000292844
354.0000	-0.7163	277.232	0.123111	0.000281172
353.5000	-0.697073	277.3	0.12333	0.000275733
353.0000	-0.689978	277.387	0.12354	0.000271356
352.5000	-0.682954	277.487	0.123943	0.000278322
352.0000	-0.681411	277.578	0.124223	0.000257898
351.5000	-0.657888	277.667	0.124414	0.000276143
351.0000	-0.632939	277.757	0.125026	0.000282641
350.5000	-0.596396	277.837	0.125465	0.000288473
350.0000	-0.567864	277.927	0.125932	0.000301337
349.5000	-0.532559	278.027	0.126281	0.000293373
349.0000	-0.498575	278.115	0.126352	0.000286666
348.5000	-0.474528	278.21	0.126512	0.000282232
348.0000	-0.446637	278.31	0.127141	0.000280224
347.5000	-0.427547	278.401	0.127891	0.000271856
347.0000	-0.417859	278.49	0.128465	0.000260741
346.5000	-0.390804	278.576	0.12862	0.000255143
346.0000	-0.363091	278.661	0.128543	0.0002532
345.5000	-0.353704	278.755	0.129217	0.000258339
345.0000	-0.338198	278.851	0.130168	0.000272773
344.5000	-0.314518	278.939	0.131328	0.000272814
344.0000	-0.288284	279.029	0.132559	0.000268525
343.5000	-0.250103	279.12	0.133804	0.00027869
343.0000	-0.222699	279.216	0.13525	0.000262744
342.5000	-0.190067	279.301	0.136528	0.000256331
342.0000	-0.175878	279.402	0.137842	0.000250362
341.5000	-0.160794	279.498	0.139068	0.000245307
341.0000	-0.145379	279.586	0.140126	0.000237092
340.5000	-0.126652	279.697	0.141418	0.000243375
340.0000	-0.118954	279.788	0.142442	0.000255399
339.5000	-0.0960416	279.888	0.143446	0.000261705
339.0000	-0.0639932	279.997	0.143946	0.000260209
338.5000	-0.0496355	280.114	0.144543	0.000248831
338.0000	-0.0310208	280.22	0.145862	0.000250254
337.5000	-0.0141897	280.338	0.147568	0.00023897
337.0000	-0.00968075	280.454	0.14866	0.000231653
336.5000	-0.00754669	280.564	0.149652	0.000216965
336.0000	0.00864595	280.674	0.150577	0.000211802
335.5000	0.0260843	280.78	0.151628	0.000215269
335.0000	0.0359885	280.885	0.152554	0.000208421
334.5000	0.0406679	281.014	0.153433	0.00019209
334.0000	0.0479976	281.151	0.153909	0.000184082
333.5000	0.0704374	281.281	0.154468	0.000192708
333.0000	0.0876936	281.413	0.155432	0.000184649
332.5000	0.110712	281.544	0.1562	0.000171961
332.0000	0.126512	281.677	0.157241	0.000162789
331.5000	0.147936	281.825	0.158498	0.000143014
331.0000	0.179412	281.994	0.160041	0.0001459
330.5000	0.218612	282.139	0.161805	0.000146097
330.0000	0.254864	282.28	0.163574	0.000156724
329.5000	0.294317	282.443	0.165233	0.000160203
329.0000	0.350259	282.608	0.166599	0.000162009
328.5000	0.406618	282.759	0.168057	0.000167442
328.0000	0.475885	282.9	0.169707	0.000181609
327.5000	0.539232	283.038	0.171077	0.000166229
327.0000	0.605035	283.16	0.172103	0.00015459
326.5000	0.663725	283.327	0.173372	0.000168782
326.0000	0.719227	283.491	0.174425	0.000168111
325.5000	0.78414	283.663	0.176076	0.000169753
325.0000	0.852472	283.834	0.177677	0.000160656
324.5000	0.915548	284.01	0.179425	0.000166172
324.0000	0.979501	284.19	0.181322	0.000161706
323.5000	1.05031	284.379	0.183452	0.000160908
323.0000	1.11182	284.557	0.185274	0.000154943
322.5000	1.17315	284.736	0.187114	0.000134414
322.0000	1.22757	284.922	0.188535	0.00012704
321.5000	1.27558	285.119	0.189997	0.000105802
321.0000	1.32798	285.313	0.191474	9.42829E-005
320.5000	1.38842	285.517	0.193397	9.04305E-005
320.0000	1.45631	285.708	0.19507	7.72469E-005
319.5000	1.51034	285.904	0.196422	6.44934E-005
319.0000	1.55918	286.134	0.198125	6.43665E-005
318.5000	1.60113	286.382	0.199956	4.6358E-005
318.0000	1.6557	286.586	0.20212	3.3611E-005
317.5000	1.70081	286.776	0.204692	2.3154E-005
317.0000	1.7475	286.975	0.20678	1.22603E-006
316.5000	1.78828	287.167	0.208524	2.57295E-006
316.0000	1.82126	287.393	0.210671	5.71685E-006
315.5000	1.85664	287.611	0.212877	4.51938E-006
315.0000	1.888	287.869	0.21525	-1.23312E-005
314.5000	1.92444	288.128	0.217656	-1.99846E-006
314.0000	1.96992	288.386	0.219873	1.02425E-005
313.5000	2.01604	288.653	0.222434	1.51045E-005
313.0000	2.06112	288.951	0.225373	1.51774E-005
312.5000	2.11451	289.247	0.228111	8.90134E-006
312.0000	2.15409	289.551	0.230685	2.85095E-006
311.5000	2.19157	289.865	0.233588	-1.79129E-005
311.0000	2.23026	290.202	0.236576	-3.14179E-005
310.5000	2.27292	290.57	0.240277	-5.51609E-005
310.0000	2.32666	290.919	0.243821	-4.9364E-005
309.5000	2.39251	291.307	0.247245	-4.40441E-005
309.0000	2.46279	291.732	0.250613	-4.54691E-005
308.5000	2.52288	292.169	0.254258	-3.50009E-005
308.0000	2.60634	292.597	0.258126	-5.25673E-005
307.5000	2.7055	293.086	0.262444	-6.31052E-005
307.0000	2.8086	293.54	0.266462	-6.33794E-005
306.5000	2.91871	294.032	0.27068	-5.25248E-005
306.0000	3.02315	294.524	0.275091	-5.83173E-005
305.5000	3.13735	295.077	0.280492	-6.0916E-005
305.0000	3.25744	295.608	0.285858	-7.31441E-005
304.5000	3.36881	296.202	0.291607	-8.04588E-005
304.0000	3.47797	296.812	0.29749	-9.30097E-005
303.5000	3.5905	297.413	0.303424	-0.000101978
303.0000	3.69808	298.08	0.310047	-9.42382E-005
302.5000	3.81207	298.777	0.317185	-0.000103935
302.0000	3.91878	299.491	0.324133	-0.000100683
301.5000	4.01405	300.228	0.33103	-0.000114984
301.0000	4.09694	300.965	0.33814	-0.000120509
300.5000	4.17339	301.649	0.345031	-0.000129952
300.0000	4.23994	302.458	0.3532	-0.000152879

##### Extended Information
[Comments]
Sample name	50% R-JS after DT 1
Comment
User
Division
Company	Labo systeme complexes hors equilibre

[Detailed Information]
Creation date	10/16/2025 2:40 PM

Data array type	Linear data array * 4
Horizontal axis	Wavelength [nm]
Vertical axis(1)	CD [mdeg]
Vertical axis(2)	HT [V]
Vertical axis(3)	Abs
Vertical axis(4)	LD [dOD]
Start	700 nm
End	300 nm
Data interval	0.5 nm
Data points	801     

[Measurement Information]
Instrument name	CD Jasco
Model name	J-1500
Serial No.	A005261638

Detector	PM-539
Detector S/N	A0052PM539
  Lock-in amp.	X mode
  HT volt	Auto

Detector	EXPML-535
Detector S/N	A0001
  Lock-in amp.	X mode
  HT volt	Auto

Measurement date	10/16/2025 2:39 PM

Overload detect	1
Photometric mode	CD, HT, Abs, LD
Measure range	700 - 300 nm
Data pitch	0.5 nm
CD scale	200 mdeg/1.0 dOD
FL scale	200 mdeg/1.0 dOD
D.I.T.	1 sec
Bandwidth	1.00 nm
Start mode	Immediately
Scanning speed	500 nm/min
Baseline correction	Baseline
Shutter control	Auto

Concentration	50 umol/L
Solvent	water

