TITLE	60% R-JS after DT 1
DATA TYPE	
ORIGIN	JASCO
OWNER	
DATE	25/10/16
TIME	14:45:22
SPECTROMETER/DATA SYSTEM	
LOCALE	1033
RESOLUTION	
DELTAX	-0.5
XUNITS	NANOMETERS
YUNITS	CD [mdeg]
Y2UNITS	HT [V]
Y3UNITS	ABSORBANCE
Y4UNITS	LD [dOD]
FIRSTX	  700.0000
LASTX	  300.0000
NPOINTS	     801
FIRSTY	    -0.34701
MAXY	    24.62863
MINY	    -1.02279
XYDATA
700.0000	-0.347011	315.121	0.0304716	5.21459E-005
699.5000	-0.377168	314.584	0.0301957	3.92696E-005
699.0000	-0.41765	313.931	0.0294427	3.57167E-005
698.5000	-0.44336	313.245	0.0301961	4.89329E-005
698.0000	-0.466068	312.549	0.0312942	5.04967E-005
697.5000	-0.492653	311.894	0.0327896	7.55742E-005
697.0000	-0.511066	311.272	0.034296	9.3689E-005
696.5000	-0.531052	310.715	0.0365507	0.000117177
696.0000	-0.539681	310.191	0.0383637	0.000102452
695.5000	-0.536851	309.769	0.0389149	9.96232E-005
695.0000	-0.53394	309.45	0.0411506	0.000117978
694.5000	-0.526904	309.184	0.0424565	0.000141584
694.0000	-0.502131	308.936	0.0438247	0.000141091
693.5000	-0.4723	308.719	0.0455896	0.000125874
693.0000	-0.434109	308.535	0.0467545	0.000138614
692.5000	-0.424367	308.376	0.0474102	0.000150223
692.0000	-0.397138	308.286	0.0492229	0.000161363
691.5000	-0.373072	308.271	0.0513071	0.000156456
691.0000	-0.322592	308.381	0.0538871	0.000156922
690.5000	-0.277258	308.583	0.0553473	0.000166667
690.0000	-0.24992	308.888	0.0565453	0.000147667
689.5000	-0.209721	309.238	0.0557202	0.000125707
689.0000	-0.187118	309.578	0.0545273	0.000117684
688.5000	-0.163089	309.933	0.0531282	0.000106949
688.0000	-0.148012	310.266	0.0522878	9.67896E-005
687.5000	-0.153149	310.56	0.0524693	0.000118623
687.0000	-0.178268	310.811	0.0497094	0.000116527
686.5000	-0.212378	311.051	0.0480362	0.000119135
686.0000	-0.257231	311.271	0.0471384	8.67486E-005
685.5000	-0.308562	311.513	0.0471526	0.000108871
685.0000	-0.362747	311.763	0.0472347	0.000127574
684.5000	-0.40825	312.032	0.0473579	0.00012146
684.0000	-0.45465	312.307	0.0469774	0.000132328
683.5000	-0.501429	312.577	0.0465215	0.000119636
683.0000	-0.533107	312.808	0.0448328	0.000138068
682.5000	-0.578629	312.967	0.0429355	0.000143065
682.0000	-0.621835	313.042	0.0414002	0.00013187
681.5000	-0.677966	313.044	0.040928	0.000158889
681.0000	-0.709625	312.998	0.0412349	0.000165469
680.5000	-0.740277	312.962	0.0415527	0.000129593
680.0000	-0.755949	312.9	0.042281	0.000144354
679.5000	-0.764057	312.84	0.0429145	0.000149023
679.0000	-0.763415	312.798	0.0439093	0.000127756
678.5000	-0.744609	312.759	0.044917	0.000119046
678.0000	-0.712654	312.738	0.0464251	0.000126288
677.5000	-0.644977	312.716	0.046853	0.00012782
677.0000	-0.596226	312.709	0.0472211	0.000124159
676.5000	-0.536468	312.716	0.0477185	0.00012289
676.0000	-0.46901	312.718	0.0480677	0.000107057
675.5000	-0.390554	312.725	0.0466344	9.96737E-005
675.0000	-0.314951	312.74	0.0471842	8.25886E-005
674.5000	-0.249732	312.769	0.0478535	7.04674E-005
674.0000	-0.173898	312.818	0.0487341	8.28449E-005
673.5000	-0.10924	312.868	0.0486252	6.86528E-005
673.0000	-0.0550496	312.929	0.0486886	4.36389E-005
672.5000	-0.00866572	312.984	0.0485546	5.43457E-005
672.0000	0.0367039	313.057	0.0490006	6.76596E-005
671.5000	0.0547407	313.128	0.0496535	6.26688E-005
671.0000	0.107899	313.213	0.0495148	5.83284E-005
670.5000	0.152344	313.291	0.0494033	7.05029E-005
670.0000	0.190557	313.377	0.0483071	7.77934E-005
669.5000	0.202517	313.469	0.0470902	7.63406E-005
669.0000	0.214494	313.55	0.0463481	6.19816E-005
668.5000	0.230849	313.647	0.0462233	4.05119E-005
668.0000	0.229769	313.757	0.0459671	5.34445E-005
667.5000	0.236259	313.889	0.0470796	7.65705E-005
667.0000	0.222153	314.012	0.046857	7.19199E-005
666.5000	0.227026	314.101	0.0462206	8.61193E-005
666.0000	0.231504	314.196	0.0457361	0.000105418
665.5000	0.247359	314.27	0.0445685	0.000101495
665.0000	0.272284	314.337	0.0449325	0.000122845
664.5000	0.285916	314.397	0.0451205	0.00013644
664.0000	0.309059	314.423	0.0446875	0.00013356
663.5000	0.344731	314.444	0.0433008	0.000138467
663.0000	0.361836	314.444	0.04223	0.000124867
662.5000	0.373449	314.438	0.041521	0.000113864
662.0000	0.393968	314.405	0.0423758	0.000119223
661.5000	0.381365	314.363	0.0439746	0.000117935
661.0000	0.348391	314.304	0.0444114	0.000150725
660.5000	0.298312	314.214	0.0445925	0.000143173
660.0000	0.255102	314.1	0.0446207	0.000151968
659.5000	0.204266	313.954	0.0446795	0.000152602
659.0000	0.143477	313.742	0.045249	0.000152487
658.5000	0.086939	313.516	0.0456556	0.000128563
658.0000	0.0281543	313.288	0.045198	0.000109662
657.5000	-0.0181916	313.033	0.046041	8.19638E-005
657.0000	-0.0845091	312.802	0.0465831	7.73979E-005
656.5000	-0.172616	312.572	0.0475957	8.87725E-005
656.0000	-0.260089	312.361	0.0483413	7.02677E-005
655.5000	-0.353757	312.167	0.0497001	6.72948E-005
655.0000	-0.434857	312.011	0.0519018	5.79471E-005
654.5000	-0.520303	311.887	0.0546147	7.00662E-005
654.0000	-0.591396	311.793	0.0559987	8.46139E-005
653.5000	-0.631084	311.724	0.0566708	6.74128E-005
653.0000	-0.660965	311.682	0.0572907	9.53004E-005
652.5000	-0.669438	311.671	0.0574212	8.42633E-005
652.0000	-0.656749	311.695	0.0577777	5.85727E-005
651.5000	-0.636177	311.751	0.0581724	5.01496E-005
651.0000	-0.589376	311.876	0.0586544	4.62932E-005
650.5000	-0.547074	312.043	0.0586537	7.20096E-005
650.0000	-0.495246	312.224	0.0590761	6.48954E-005
649.5000	-0.438644	312.393	0.0594673	8.53016E-005
649.0000	-0.404145	312.569	0.0589218	0.00010289
648.5000	-0.350076	312.76	0.0585465	9.62863E-005
648.0000	-0.295373	312.943	0.0590142	8.96437E-005
647.5000	-0.220659	313.09	0.058614	0.000126964
647.0000	-0.137141	313.226	0.0585618	0.000153883
646.5000	-0.040961	313.326	0.0582348	0.000166694
646.0000	0.0712442	313.377	0.0577119	0.000158318
645.5000	0.159651	313.411	0.0573583	0.000170684
645.0000	0.254488	313.415	0.0573017	0.000170282
644.5000	0.33907	313.41	0.0575096	0.000157751
644.0000	0.402035	313.379	0.0572883	0.000177309
643.5000	0.468142	313.333	0.0578665	0.000199532
643.0000	0.523975	313.268	0.0579874	0.000202926
642.5000	0.55743	313.176	0.0586686	0.000181285
642.0000	0.604903	313.087	0.0600761	0.000185264
641.5000	0.649424	312.999	0.0610401	0.000183335
641.0000	0.708694	312.9	0.0620338	0.000176817
640.5000	0.765297	312.799	0.0624876	0.000172785
640.0000	0.811689	312.696	0.0628251	0.000148808
639.5000	0.848737	312.582	0.0631339	0.000124547
639.0000	0.863428	312.477	0.0638793	0.000118344
638.5000	0.851008	312.383	0.0647867	0.000113921
638.0000	0.800001	312.307	0.0655865	9.44347E-005
637.5000	0.740304	312.232	0.0668043	0.00010924
637.0000	0.654112	312.163	0.0678026	9.17722E-005
636.5000	0.564445	312.093	0.0685529	9.18552E-005
636.0000	0.489384	312.041	0.0693851	9.45545E-005
635.5000	0.413206	311.998	0.0703469	8.01573E-005
635.0000	0.351283	311.968	0.0713462	6.87143E-005
634.5000	0.312441	311.933	0.0719716	4.8405E-005
634.0000	0.273043	311.9	0.0720814	4.43722E-005
633.5000	0.224066	311.87	0.0716908	5.54271E-005
633.0000	0.154652	311.839	0.0722026	4.89898E-005
632.5000	0.0909687	311.825	0.0726588	5.03264E-005
632.0000	0.0230798	311.794	0.0723021	6.12984E-005
631.5000	-0.0397753	311.756	0.0721867	7.65771E-005
631.0000	-0.0996877	311.729	0.0728962	6.0518E-005
630.5000	-0.141497	311.678	0.0733013	4.79432E-005
630.0000	-0.144038	311.619	0.073664	5.03712E-005
629.5000	-0.118151	311.562	0.0746551	3.78371E-005
629.0000	-0.0597204	311.507	0.0754255	2.21092E-005
628.5000	0.00784146	311.468	0.0762698	1.40951E-005
628.0000	0.0881914	311.43	0.0769007	1.53349E-005
627.5000	0.174205	311.399	0.0781896	1.91813E-005
627.0000	0.25126	311.378	0.0788507	1.54793E-005
626.5000	0.324037	311.364	0.0791635	1.80662E-005
626.0000	0.384569	311.375	0.0803595	2.88993E-005
625.5000	0.428924	311.394	0.0819812	4.15905E-005
625.0000	0.457984	311.443	0.0839033	9.66747E-007
624.5000	0.498713	311.493	0.0843711	7.329E-007
624.0000	0.531831	311.555	0.0857353	-5.09705E-006
623.5000	0.596687	311.634	0.088087	-3.84795E-005
623.0000	0.6457	311.726	0.0895593	-2.00281E-005
622.5000	0.687247	311.846	0.090502	-3.27332E-005
622.0000	0.735732	311.975	0.0906068	-5.31103E-005
621.5000	0.775241	312.12	0.0908926	-5.17076E-005
621.0000	0.805719	312.275	0.0911762	-4.5892E-005
620.5000	0.819445	312.438	0.0919828	-4.25635E-005
620.0000	0.825919	312.615	0.0928341	-4.13393E-005
619.5000	0.823032	312.834	0.0943254	-5.08083E-005
619.0000	0.835267	313.049	0.0950627	-5.61431E-005
618.5000	0.832277	313.284	0.0962555	-6.80372E-005
618.0000	0.811845	313.502	0.0969895	-8.64018E-005
617.5000	0.795242	313.72	0.0975413	-9.54134E-005
617.0000	0.782367	313.946	0.0982095	-6.20606E-005
616.5000	0.789709	314.157	0.0996625	-5.51122E-005
616.0000	0.799393	314.361	0.100804	-4.35394E-005
615.5000	0.814024	314.569	0.10195	-4.79917E-005
615.0000	0.820268	314.766	0.102288	-3.55349E-005
614.5000	0.857519	314.966	0.102977	-4.46657E-005
614.0000	0.888494	315.155	0.104195	-4.75432E-005
613.5000	0.899137	315.351	0.106146	-3.67609E-005
613.0000	0.910634	315.544	0.107769	-4.90847E-005
612.5000	0.913584	315.728	0.108935	-5.85427E-005
612.0000	0.910221	315.921	0.10955	-6.10643E-005
611.5000	0.923361	316.101	0.110343	-7.32071E-005
611.0000	0.950327	316.274	0.111749	-8.06332E-005
610.5000	0.992102	316.441	0.112727	-9.2686E-005
610.0000	1.04222	316.588	0.114408	-7.41449E-005
609.5000	1.09694	316.739	0.116023	-9.99207E-005
609.0000	1.17253	316.873	0.116955	-0.000136375
608.5000	1.25822	317.023	0.118355	-0.000155795
608.0000	1.3381	317.152	0.119677	-0.000163695
607.5000	1.42859	317.289	0.121657	-0.000170667
607.0000	1.50323	317.443	0.123972	-0.000170934
606.5000	1.58275	317.576	0.126025	-0.000169195
606.0000	1.66326	317.712	0.127965	-0.000176745
605.5000	1.74808	317.838	0.129436	-0.000199156
605.0000	1.84235	317.963	0.130888	-0.000190154
604.5000	1.93394	318.094	0.133246	-0.00022618
604.0000	2.05687	318.214	0.135243	-0.000216627
603.5000	2.1785	318.333	0.135837	-0.000241906
603.0000	2.30387	318.44	0.137136	-0.000243564
602.5000	2.4518	318.575	0.139884	-0.000233116
602.0000	2.59861	318.702	0.141948	-0.000242322
601.5000	2.72627	318.825	0.143851	-0.000244239
601.0000	2.83669	318.965	0.146127	-0.000207372
600.5000	2.95093	319.087	0.149095	-0.000203439
600.0000	3.07554	319.208	0.152149	-0.000237249
599.5000	3.19775	319.324	0.154715	-0.000235214
599.0000	3.32678	319.429	0.157433	-0.000237012
598.5000	3.4686	319.535	0.160212	-0.000268709
598.0000	3.62576	319.647	0.16311	-0.000278429
597.5000	3.78679	319.778	0.166152	-0.000283346
597.0000	3.94047	319.913	0.169974	-0.000304238
596.5000	4.11823	320.029	0.172585	-0.000335493
596.0000	4.29875	320.175	0.175737	-0.000351166
595.5000	4.4671	320.311	0.180133	-0.000341208
595.0000	4.66062	320.444	0.185649	-0.000346117
594.5000	4.85086	320.61	0.189158	-0.0003692
594.0000	5.03488	320.797	0.193066	-0.000391682
593.5000	5.23851	320.976	0.198049	-0.000431176
593.0000	5.43524	321.167	0.202822	-0.000450486
592.5000	5.61694	321.392	0.206983	-0.000492583
592.0000	5.82693	321.651	0.210746	-0.000493864
591.5000	6.04384	321.897	0.214733	-0.000520454
591.0000	6.2727	322.172	0.219193	-0.00056331
590.5000	6.49483	322.487	0.223752	-0.000563372
590.0000	6.70961	322.84	0.228509	-0.000571388
589.5000	6.93535	323.181	0.23356	-0.000596449
589.0000	7.16798	323.562	0.239111	-0.000595228
588.5000	7.37145	323.969	0.244481	-0.000605082
588.0000	7.5729	324.401	0.249966	-0.000612219
587.5000	7.78205	324.866	0.255911	-0.000617741
587.0000	7.97683	325.394	0.261738	-0.000646936
586.5000	8.17638	325.9	0.267545	-0.000655009
586.0000	8.36811	326.423	0.274845	-0.000682831
585.5000	8.54473	326.979	0.280963	-0.000704189
585.0000	8.71261	327.55	0.287286	-0.000716211
584.5000	8.9184	328.111	0.293217	-0.000734497
584.0000	9.09943	328.731	0.300057	-0.000774875
583.5000	9.27878	329.386	0.307326	-0.000798313
583.0000	9.46933	330.092	0.315203	-0.000813517
582.5000	9.64354	330.835	0.323382	-0.00081748
582.0000	9.79594	331.566	0.331761	-0.000830559
581.5000	9.93575	332.365	0.340438	-0.00085788
581.0000	10.0565	333.178	0.348972	-0.000876455
580.5000	10.1768	334.017	0.357633	-0.000903994
580.0000	10.2687	334.853	0.36591	-0.000893717
579.5000	10.3374	335.715	0.37509	-0.000939939
579.0000	10.4003	336.585	0.384235	-0.000954804
578.5000	10.432	337.46	0.393416	-0.00098813
578.0000	10.4438	338.361	0.402686	-0.00102597
577.5000	10.4267	339.335	0.412542	-0.00105412
577.0000	10.3683	340.292	0.422707	-0.00105958
576.5000	10.2814	341.331	0.434337	-0.00108138
576.0000	10.1845	342.354	0.445576	-0.00108689
575.5000	10.0428	343.395	0.457487	-0.00113749
575.0000	9.85781	344.371	0.467866	-0.00115689
574.5000	9.63092	345.445	0.47877	-0.00120515
574.0000	9.34624	346.465	0.489432	-0.00121983
573.5000	9.03094	347.486	0.499906	-0.00124349
573.0000	8.6908	348.579	0.511162	-0.00128151
572.5000	8.33265	349.583	0.521487	-0.00129937
572.0000	7.91937	350.714	0.533492	-0.00131312
571.5000	7.49461	351.798	0.545658	-0.00136275
571.0000	7.05705	352.921	0.557072	-0.00140358
570.5000	6.61346	354.067	0.568892	-0.00141788
570.0000	6.16619	355.167	0.580183	-0.00144719
569.5000	5.70277	356.288	0.591766	-0.00140721
569.0000	5.25677	357.384	0.60339	-0.00141929
568.5000	4.83966	358.419	0.613936	-0.00142253
568.0000	4.44034	359.441	0.623931	-0.00145643
567.5000	4.05973	360.456	0.634742	-0.00146095
567.0000	3.69212	361.427	0.644761	-0.00146446
566.5000	3.32167	362.335	0.65501	-0.00144645
566.0000	3.01439	363.2	0.664302	-0.00145274
565.5000	2.72984	364.044	0.673477	-0.00149444
565.0000	2.50127	364.822	0.682108	-0.00148117
564.5000	2.3442	365.59	0.690846	-0.00150146
564.0000	2.22499	366.264	0.698421	-0.00151498
563.5000	2.1764	366.882	0.70505	-0.00151838
563.0000	2.16989	367.517	0.712503	-0.00152908
562.5000	2.23064	368.047	0.719777	-0.00155271
562.0000	2.3441	368.55	0.726191	-0.00157977
561.5000	2.4978	369.036	0.732089	-0.00160291
561.0000	2.71512	369.474	0.737389	-0.0016262
560.5000	2.93691	369.867	0.742314	-0.00165708
560.0000	3.19457	370.222	0.747177	-0.00166108
559.5000	3.50027	370.497	0.751203	-0.00168416
559.0000	3.82465	370.712	0.754303	-0.00169011
558.5000	4.15346	370.864	0.756805	-0.00170393
558.0000	4.51119	370.972	0.759325	-0.00170628
557.5000	4.91179	371.05	0.761447	-0.00172654
557.0000	5.35785	371.104	0.763109	-0.00174199
556.5000	5.80149	371.12	0.764691	-0.00176665
556.0000	6.26061	371.089	0.766095	-0.00179094
555.5000	6.73128	371.016	0.767465	-0.00181983
555.0000	7.19525	370.916	0.768239	-0.00185317
554.5000	7.65425	370.794	0.768655	-0.00187791
554.0000	8.07646	370.66	0.768818	-0.00186929
553.5000	8.50126	370.497	0.768974	-0.00186075
553.0000	8.91992	370.356	0.768466	-0.00187246
552.5000	9.32914	370.21	0.76865	-0.00188635
552.0000	9.72927	370.003	0.76789	-0.00191069
551.5000	10.111	369.828	0.767806	-0.0018724
551.0000	10.5168	369.665	0.768045	-0.0018815
550.5000	10.9337	369.499	0.768336	-0.00188551
550.0000	11.3474	369.345	0.768645	-0.00192527
549.5000	11.7228	369.187	0.768719	-0.0019353
549.0000	12.1046	369.051	0.769327	-0.00196181
548.5000	12.4541	368.966	0.769975	-0.0019966
548.0000	12.7657	368.887	0.770791	-0.00199213
547.5000	13.03	368.867	0.771909	-0.00200972
547.0000	13.3099	368.859	0.773329	-0.00198736
546.5000	13.5838	368.907	0.774701	-0.00197404
546.0000	13.8614	369	0.776504	-0.00200784
545.5000	14.1416	369.091	0.778624	-0.00204767
545.0000	14.4105	369.247	0.780848	-0.00208772
544.5000	14.6674	369.416	0.784182	-0.00211424
544.0000	14.891	369.634	0.78789	-0.00214987
543.5000	15.1009	369.883	0.791345	-0.00217941
543.0000	15.2669	370.162	0.794684	-0.00221694
542.5000	15.3954	370.466	0.798013	-0.00225006
542.0000	15.4772	370.808	0.801964	-0.00227831
541.5000	15.5252	371.219	0.806714	-0.00232646
541.0000	15.5446	371.664	0.811983	-0.00230264
540.5000	15.5099	372.141	0.817511	-0.00230205
540.0000	15.5016	372.62	0.823398	-0.00233272
539.5000	15.4794	373.129	0.829328	-0.00237916
539.0000	15.4474	373.692	0.835131	-0.00241109
538.5000	15.3712	374.282	0.841336	-0.0024783
538.0000	15.2645	374.846	0.847677	-0.00252175
537.5000	15.1095	375.462	0.853882	-0.00250359
537.0000	14.9269	376.097	0.861134	-0.00251484
536.5000	14.7058	376.721	0.868243	-0.00254018
536.0000	14.4627	377.394	0.875317	-0.00257468
535.5000	14.2258	378.072	0.882516	-0.00262937
535.0000	13.9984	378.783	0.890435	-0.00265077
534.5000	13.7615	379.453	0.898108	-0.00269623
534.0000	13.5389	380.16	0.905569	-0.00272028
533.5000	13.3584	380.875	0.912953	-0.00272466
533.0000	13.1817	381.528	0.919846	-0.00274681
532.5000	13.0209	382.209	0.926801	-0.00280689
532.0000	12.8879	382.937	0.934	-0.00285708
531.5000	12.7425	383.659	0.940731	-0.00288962
531.0000	12.612	384.382	0.948078	-0.00288386
530.5000	12.464	385.068	0.955378	-0.00289259
530.0000	12.35	385.786	0.963273	-0.00293071
529.5000	12.2551	386.469	0.970871	-0.00298618
529.0000	12.2055	387.101	0.977867	-0.0030224
528.5000	12.2079	387.727	0.984517	-0.00303154
528.0000	12.2293	388.328	0.99065	-0.00304576
527.5000	12.266	388.925	0.997698	-0.0030621
527.0000	12.3078	389.576	1.00476	-0.00307679
526.5000	12.3709	390.188	1.01107	-0.00316577
526.0000	12.4747	390.816	1.01816	-0.00321156
525.5000	12.564	391.422	1.02502	-0.0032516
525.0000	12.6785	392.008	1.03153	-0.00330051
524.5000	12.7544	392.549	1.03734	-0.00335388
524.0000	12.8314	393.028	1.04271	-0.00337945
523.5000	12.9288	393.531	1.0486	-0.00340666
523.0000	13.0714	394.017	1.05471	-0.00343849
522.5000	13.2262	394.496	1.06069	-0.00351026
522.0000	13.4048	394.991	1.06623	-0.00356633
521.5000	13.6035	395.479	1.07157	-0.00359946
521.0000	13.8305	395.938	1.07681	-0.00365661
520.5000	14.013	396.403	1.08199	-0.00367588
520.0000	14.1933	396.82	1.08688	-0.00373797
519.5000	14.3761	397.244	1.09195	-0.00379306
519.0000	14.5424	397.676	1.09669	-0.00381327
518.5000	14.7044	398.1	1.1017	-0.00382963
518.0000	14.8395	398.585	1.10696	-0.00388522
517.5000	14.9549	399.087	1.1121	-0.00394383
517.0000	15.0865	399.588	1.11752	-0.00398498
516.5000	15.1941	400.082	1.12289	-0.00404002
516.0000	15.2965	400.58	1.12861	-0.00410956
515.5000	15.395	401.062	1.13353	-0.00414954
515.0000	15.4887	401.505	1.1379	-0.00418297
514.5000	15.5367	401.998	1.14271	-0.00426743
514.0000	15.5753	402.438	1.14745	-0.00427586
513.5000	15.5502	402.896	1.15269	-0.00432371
513.0000	15.4881	403.377	1.15813	-0.00431875
512.5000	15.439	403.896	1.16351	-0.00434031
512.0000	15.3376	404.356	1.16843	-0.00439569
511.5000	15.2241	404.81	1.1734	-0.00445258
511.0000	15.1123	405.212	1.17778	-0.0045087
510.5000	15.0051	405.571	1.18181	-0.00458174
510.0000	14.8836	405.882	1.18587	-0.00458835
509.5000	14.781	406.147	1.1896	-0.00462617
509.0000	14.6618	406.386	1.19282	-0.00466556
508.5000	14.5501	406.608	1.19644	-0.004666
508.0000	14.4707	406.837	1.19946	-0.00469709
507.5000	14.3435	407.031	1.20229	-0.00472355
507.0000	14.1948	407.175	1.20455	-0.00478518
506.5000	14.0476	407.266	1.20686	-0.00482284
506.0000	13.8811	407.318	1.2085	-0.00484125
505.5000	13.7538	407.322	1.20946	-0.00488161
505.0000	13.6528	407.289	1.20977	-0.00487078
504.5000	13.5457	407.203	1.20998	-0.00489594
504.0000	13.4345	407.051	1.21007	-0.00489434
503.5000	13.3411	406.846	1.20942	-0.00492091
503.0000	13.2267	406.561	1.20786	-0.00496779
502.5000	13.1555	406.253	1.2064	-0.00494076
502.0000	13.0875	405.879	1.2047	-0.00496332
501.5000	13.0473	405.46	1.20266	-0.00495151
501.0000	13.0285	404.951	1.20045	-0.00495596
500.5000	13.0422	404.318	1.19699	-0.00496146
500.0000	13.0603	403.534	1.19311	-0.00500854
499.5000	13.0882	402.566	1.18915	-0.00498941
499.0000	13.1608	401.355	1.18457	-0.00498385
498.5000	13.252	400.051	1.18017	-0.00498148
498.0000	13.3649	398.697	1.17578	-0.00495069
497.5000	13.494	397.37	1.17151	-0.00497847
497.0000	13.6292	396.304	1.16758	-0.00494411
496.5000	13.8073	395.372	1.16349	-0.00492193
496.0000	14.0144	394.538	1.15845	-0.00495368
495.5000	14.2247	393.666	1.15282	-0.00496865
495.0000	14.4642	392.842	1.14771	-0.00493853
494.5000	14.7607	392.036	1.14263	-0.00495168
494.0000	15.081	391.29	1.13797	-0.00493182
493.5000	15.4251	390.506	1.1319	-0.00493716
493.0000	15.7645	389.794	1.1266	-0.00494864
492.5000	16.0967	389.073	1.121	-0.00494005
492.0000	16.432	388.309	1.11467	-0.00495951
491.5000	16.759	387.64	1.10927	-0.00495097
491.0000	17.0872	387.04	1.10358	-0.00497144
490.5000	17.4011	386.505	1.0978	-0.00497536
490.0000	17.7539	385.948	1.09121	-0.00495356
489.5000	18.0908	385.271	1.08407	-0.00495057
489.0000	18.4288	384.279	1.07676	-0.00494585
488.5000	18.768	383.111	1.0698	-0.00494998
488.0000	19.0973	381.826	1.06309	-0.00495062
487.5000	19.4454	380.435	1.05619	-0.00495007
487.0000	19.8089	379.092	1.05015	-0.00496234
486.5000	20.1421	377.762	1.04458	-0.00494548
486.0000	20.4766	376.69	1.03941	-0.00492296
485.5000	20.7874	375.761	1.03388	-0.00491149
485.0000	21.0707	374.857	1.0279	-0.00489046
484.5000	21.3304	374.023	1.0222	-0.00486331
484.0000	21.5727	373.203	1.01625	-0.00483154
483.5000	21.82	372.471	1.00986	-0.00484827
483.0000	22.0457	371.761	1.0029	-0.0048252
482.5000	22.2509	371.148	0.996544	-0.00483594
482.0000	22.4497	370.573	0.990435	-0.00481234
481.5000	22.6237	370.01	0.984387	-0.00481214
481.0000	22.7963	369.466	0.978233	-0.00480362
480.5000	22.9496	368.888	0.971276	-0.0047977
480.0000	23.1048	368.034	0.963342	-0.00480889
479.5000	23.2494	366.823	0.955638	-0.0047955
479.0000	23.4023	365.537	0.949083	-0.00475747
478.5000	23.5298	364.577	0.94367	-0.00471626
478.0000	23.6449	363.765	0.937208	-0.00470194
477.5000	23.729	362.916	0.929763	-0.00471868
477.0000	23.8048	361.812	0.921841	-0.00471294
476.5000	23.879	360.275	0.912792	-0.0046874
476.0000	23.9577	358.565	0.903673	-0.00467153
475.5000	24.0247	356.689	0.89495	-0.00464062
475.0000	24.0892	354.637	0.886072	-0.00460866
474.5000	24.1639	352.495	0.877478	-0.00456274
474.0000	24.2296	350.157	0.86895	-0.0044942
473.5000	24.312	347.69	0.861185	-0.00445005
473.0000	24.3945	345.492	0.854574	-0.00440321
472.5000	24.4572	343.697	0.847874	-0.00437308
472.0000	24.5314	342.44	0.840832	-0.00432573
471.5000	24.5899	341.644	0.833422	-0.00427458
471.0000	24.6217	341.242	0.826524	-0.00424763
470.5000	24.6286	340.695	0.817189	-0.00422845
470.0000	24.5974	339.817	0.807765	-0.00421362
469.5000	24.5467	338.55	0.798146	-0.00415411
469.0000	24.505	337.041	0.789137	-0.00406965
468.5000	24.4469	335.652	0.780683	-0.00400617
468.0000	24.3911	334.56	0.772729	-0.00399192
467.5000	24.3215	333.82	0.764664	-0.00394211
467.0000	24.2226	333.333	0.757197	-0.00387425
466.5000	24.1155	333.087	0.749526	-0.00383238
466.0000	24.0001	333.084	0.741642	-0.00379694
465.5000	23.867	333.263	0.732469	-0.00376102
465.0000	23.6958	333.342	0.720717	-0.00370734
464.5000	23.5082	332.943	0.707643	-0.00366995
464.0000	23.3057	332.13	0.696214	-0.00361122
463.5000	23.0811	331.189	0.686661	-0.00358095
463.0000	22.862	330.257	0.677409	-0.00348812
462.5000	22.6338	329.408	0.668753	-0.0034265
462.0000	22.4004	328.698	0.659797	-0.00337041
461.5000	22.1794	328.178	0.650906	-0.00332367
461.0000	21.9462	327.796	0.64171	-0.0032801
460.5000	21.7078	327.458	0.631568	-0.00326048
460.0000	21.463	327.05	0.621369	-0.00319115
459.5000	21.2051	326.534	0.611786	-0.00314945
459.0000	20.9612	325.798	0.601943	-0.00311338
458.5000	20.6897	324.852	0.592319	-0.00306318
458.0000	20.4078	323.768	0.583307	-0.00301398
457.5000	20.1225	322.742	0.57452	-0.00295683
457.0000	19.8349	321.789	0.565449	-0.00291293
456.5000	19.555	320.72	0.556367	-0.00284902
456.0000	19.266	319.445	0.547275	-0.00282726
455.5000	18.9734	318.166	0.538495	-0.00276723
455.0000	18.6864	317.242	0.530111	-0.00273909
454.5000	18.3871	316.516	0.52124	-0.00269397
454.0000	18.0937	315.766	0.511688	-0.00265581
453.5000	17.78	315.022	0.502459	-0.00259717
453.0000	17.4539	314.284	0.494253	-0.0025665
452.5000	17.1363	313.556	0.486148	-0.00250836
452.0000	16.8022	312.783	0.477464	-0.00245244
451.5000	16.4796	311.97	0.46835	-0.00242773
451.0000	16.1663	311.201	0.45977	-0.00238164
450.5000	15.8447	310.527	0.451843	-0.00233644
450.0000	15.5356	310.061	0.444447	-0.00227108
449.5000	15.2113	309.631	0.436626	-0.00222041
449.0000	14.9012	309.079	0.428711	-0.00220392
448.5000	14.5937	308.49	0.421358	-0.00216332
448.0000	14.3041	308.193	0.415033	-0.00212365
447.5000	14.0173	308.073	0.408163	-0.00207434
447.0000	13.729	307.81	0.399846	-0.00203283
446.5000	13.4526	307.265	0.392051	-0.00198845
446.0000	13.1949	306.531	0.384539	-0.00195097
445.5000	12.9388	305.753	0.377666	-0.00190067
445.0000	12.6915	304.905	0.370477	-0.00187077
444.5000	12.446	304.021	0.363391	-0.00184397
444.0000	12.2129	303.165	0.35691	-0.00181557
443.5000	11.9821	302.329	0.350751	-0.00177183
443.0000	11.7438	301.628	0.34506	-0.00173495
442.5000	11.5119	300.968	0.339255	-0.0016758
442.0000	11.2862	300.393	0.333785	-0.00162139
441.5000	11.0539	299.769	0.32798	-0.00159053
441.0000	10.8396	299.201	0.322621	-0.00155887
440.5000	10.6136	298.641	0.317159	-0.00151161
440.0000	10.3941	298.066	0.311333	-0.00148393
439.5000	10.1776	297.482	0.305086	-0.00143486
439.0000	9.95803	296.857	0.298174	-0.00141795
438.5000	9.73849	296.212	0.2918	-0.00137787
438.0000	9.52523	295.588	0.285627	-0.00132624
437.5000	9.3142	294.998	0.279545	-0.001285
437.0000	9.10798	294.419	0.273477	-0.00125561
436.5000	8.90461	293.962	0.268573	-0.00120359
436.0000	8.70851	293.564	0.263745	-0.0011766
435.5000	8.51659	293.149	0.258397	-0.00112205
435.0000	8.32664	292.679	0.253002	-0.00109709
434.5000	8.14402	292.198	0.247936	-0.0010838
434.0000	7.96859	291.699	0.242824	-0.00107512
433.5000	7.79925	291.216	0.237934	-0.00105668
433.0000	7.62226	290.693	0.232632	-0.00102655
432.5000	7.4394	290.204	0.228049	-0.00100644
432.0000	7.27534	289.7	0.223637	-0.000968308
431.5000	7.10957	289.183	0.219273	-0.00094024
431.0000	6.95228	288.694	0.214964	-0.00089082
430.5000	6.80244	288.214	0.210691	-0.000855505
430.0000	6.65511	287.753	0.20655	-0.000835844
429.5000	6.50693	287.271	0.20239	-0.00081614
429.0000	6.35186	286.789	0.198371	-0.000795625
428.5000	6.18822	286.317	0.194178	-0.000759673
428.0000	6.02037	285.833	0.189814	-0.000745376
427.5000	5.85205	285.4	0.185961	-0.000709949
427.0000	5.67733	284.958	0.181764	-0.000689467
426.5000	5.5096	284.499	0.177583	-0.000651613
426.0000	5.33001	283.981	0.173413	-0.00061223
425.5000	5.15879	283.447	0.169462	-0.000563245
425.0000	4.99908	282.905	0.165926	-0.000541518
424.5000	4.85908	282.404	0.162459	-0.000520615
424.0000	4.72279	281.982	0.159128	-0.00049992
423.5000	4.5882	281.606	0.155705	-0.000495549
423.0000	4.46245	281.245	0.15253	-0.000474477
422.5000	4.32178	280.915	0.149685	-0.000455549
422.0000	4.16883	280.577	0.146416	-0.000432674
421.5000	4.03086	280.264	0.143364	-0.000429123
421.0000	3.89784	279.974	0.140488	-0.000391056
420.5000	3.75554	279.679	0.13739	-0.0003847
420.0000	3.63958	279.368	0.134363	-0.000348653
419.5000	3.53346	279.038	0.131448	-0.000320872
419.0000	3.43702	278.727	0.128916	-0.000314441
418.5000	3.35742	278.469	0.126957	-0.000315887
418.0000	3.28269	278.236	0.1251	-0.000304668
417.5000	3.22194	278.047	0.12344	-0.000306725
417.0000	3.15421	277.905	0.121489	-0.000283014
416.5000	3.0958	277.78	0.119391	-0.000262571
416.0000	3.03098	277.608	0.117509	-0.000256746
415.5000	2.95731	277.394	0.115519	-0.00024334
415.0000	2.86858	277.184	0.114014	-0.000226882
414.5000	2.78051	276.933	0.111897	-0.000212228
414.0000	2.72044	276.703	0.110276	-0.000190739
413.5000	2.66467	276.479	0.108764	-0.000184905
413.0000	2.61951	276.3	0.10714	-0.000180333
412.5000	2.58669	276.136	0.105752	-0.000166936
412.0000	2.55445	276.001	0.104834	-0.000156426
411.5000	2.50679	275.865	0.10358	-0.000155025
411.0000	2.46801	275.746	0.102109	-0.000137011
410.5000	2.41041	275.639	0.100864	-0.000116038
410.0000	2.34841	275.559	0.100056	-0.000112537
409.5000	2.27344	275.497	0.0990859	-0.000109101
409.0000	2.18785	275.414	0.0976128	-0.000106102
408.5000	2.09178	275.322	0.0960526	-0.00010615
408.0000	1.99773	275.24	0.0951446	-8.37893E-005
407.5000	1.90969	275.15	0.0939888	-6.86703E-005
407.0000	1.83243	275.056	0.092985	-5.14132E-005
406.5000	1.76724	274.945	0.091806	-4.79525E-005
406.0000	1.70651	274.842	0.0910941	-3.43171E-005
405.5000	1.63704	274.713	0.0905808	-3.0045E-005
405.0000	1.57161	274.563	0.0900563	-1.40818E-005
404.5000	1.49009	274.379	0.0895424	1.1427E-005
404.0000	1.40574	274.159	0.0888708	2.50872E-005
403.5000	1.32811	273.923	0.0882838	3.84012E-005
403.0000	1.25549	273.685	0.0880443	4.77883E-005
402.5000	1.18467	273.447	0.087915	4.83503E-005
402.0000	1.12257	273.244	0.0877912	7.22591E-005
401.5000	1.06105	273.023	0.0875594	9.39967E-005
401.0000	1.01953	272.835	0.0879908	9.70539E-005
400.5000	0.987601	272.672	0.0884253	0.000106342
400.0000	0.96396	272.543	0.0884301	9.91419E-005
399.5000	0.935347	272.422	0.0884831	0.000127355
399.0000	0.921608	272.335	0.0887421	0.000134296
398.5000	0.89595	272.268	0.0890239	0.000142165
398.0000	0.869693	272.223	0.0890103	0.000158453
397.5000	0.83085	272.204	0.0886083	0.000173241
397.0000	0.793222	272.219	0.0881901	0.000180545
396.5000	0.756372	272.264	0.0882298	0.000195218
396.0000	0.733205	272.338	0.0881286	0.000191876
395.5000	0.713527	272.46	0.0889081	0.00018831
395.0000	0.698385	272.6	0.089029	0.000174886
394.5000	0.68427	272.767	0.0891647	0.000186839
394.0000	0.668723	272.947	0.0893992	0.000192074
393.5000	0.656151	273.116	0.0893693	0.00017323
393.0000	0.632641	273.294	0.0891257	0.000177914
392.5000	0.606249	273.452	0.0888067	0.000180685
392.0000	0.588427	273.599	0.0888126	0.000184763
391.5000	0.569586	273.72	0.0893313	0.00018823
391.0000	0.550547	273.841	0.0895125	0.000177799
390.5000	0.528013	273.94	0.0894196	0.000181817
390.0000	0.529051	274.033	0.08946	0.000190074
389.5000	0.535309	274.136	0.0901264	0.000189205
389.0000	0.546581	274.228	0.0908347	0.000185893
388.5000	0.550904	274.313	0.0918305	0.000164322
388.0000	0.565026	274.391	0.0927386	0.000155217
387.5000	0.569394	274.46	0.0934739	0.000159549
387.0000	0.55682	274.514	0.0938994	0.000177899
386.5000	0.537268	274.57	0.094798	0.000195337
386.0000	0.500997	274.622	0.0956238	0.000193853
385.5000	0.474435	274.656	0.0962893	0.000211154
385.0000	0.442721	274.704	0.0971598	0.000230453
384.5000	0.410968	274.747	0.0980211	0.000239053
384.0000	0.377941	274.803	0.0989798	0.00023919
383.5000	0.343116	274.861	0.100056	0.000250765
383.0000	0.318419	274.914	0.101173	0.000260888
382.5000	0.294749	274.966	0.102233	0.000260417
382.0000	0.265461	275.033	0.103402	0.000274126
381.5000	0.22584	275.104	0.104348	0.000270296
381.0000	0.186923	275.158	0.105308	0.000273449
380.5000	0.141633	275.229	0.106381	0.000268336
380.0000	0.100781	275.288	0.107378	0.000284772
379.5000	0.0535859	275.367	0.108687	0.00030036
379.0000	0.0171773	275.433	0.109372	0.000299222
378.5000	-0.00985633	275.506	0.110272	0.000293962
378.0000	-0.0322055	275.575	0.110941	0.000296279
377.5000	-0.0352635	275.632	0.11154	0.000292402
377.0000	-0.0378246	275.687	0.112079	0.000273615
376.5000	-0.0286763	275.72	0.112808	0.000267154
376.0000	-0.0343151	275.749	0.113464	0.000256851
375.5000	-0.0300633	275.758	0.11382	0.000258877
375.0000	-0.0319158	275.77	0.113854	0.000247363
374.5000	-0.0369523	275.779	0.113934	0.000231101
374.0000	-0.0446539	275.784	0.114326	0.000243481
373.5000	-0.0513538	275.785	0.114833	0.000237272
373.0000	-0.0652863	275.79	0.115373	0.000233425
372.5000	-0.0762432	275.792	0.11557	0.000244452
372.0000	-0.0730784	275.79	0.115602	0.000248102
371.5000	-0.0715568	275.797	0.115596	0.000233834
371.0000	-0.075053	275.806	0.115677	0.000219014
370.5000	-0.0810054	275.833	0.116007	0.000220029
370.0000	-0.0652495	275.85	0.116077	0.000213896
369.5000	-0.0518779	275.874	0.116331	0.000190952
369.0000	-0.0463303	275.909	0.116749	0.000198379
368.5000	-0.0257959	275.957	0.117365	0.000201823
368.0000	-0.0121274	276.028	0.11789	0.000181567
367.5000	-0.00025609	276.096	0.118531	0.000181657
367.0000	0.0106158	276.177	0.119332	0.000176827
366.5000	0.0296128	276.257	0.120042	0.000165736
366.0000	0.0421116	276.348	0.120563	0.000165759
365.5000	0.0561845	276.429	0.121255	0.000152936
365.0000	0.070907	276.518	0.122076	0.000150043
364.5000	0.0792183	276.6	0.122902	0.000131041
364.0000	0.0767351	276.689	0.123717	0.000129453
363.5000	0.0618128	276.783	0.124275	0.000133111
363.0000	0.0420598	276.866	0.124653	0.000128708
362.5000	0.0211048	276.958	0.125287	0.000139323
362.0000	0.000419215	277.037	0.125641	0.000134183
361.5000	-0.0300968	277.133	0.126254	0.000132822
361.0000	-0.0778076	277.228	0.126853	0.000106925
360.5000	-0.141413	277.328	0.127502	0.000102915
360.0000	-0.216146	277.414	0.128184	0.000106246
359.5000	-0.29611	277.508	0.128854	0.000106032
359.0000	-0.390918	277.576	0.129303	0.000107813
358.5000	-0.482534	277.655	0.130068	9.41527E-005
358.0000	-0.568234	277.729	0.130818	9.46366E-005
357.5000	-0.649958	277.809	0.131587	7.53734E-005
357.0000	-0.730543	277.902	0.132399	7.23065E-005
356.5000	-0.806396	277.97	0.132614	6.50081E-005
356.0000	-0.873635	278.048	0.132978	6.67216E-005
355.5000	-0.932752	278.122	0.133593	5.25502E-005
355.0000	-0.956897	278.199	0.134302	3.64347E-005
354.5000	-0.971009	278.278	0.135168	2.12741E-005
354.0000	-0.978802	278.354	0.135772	2.22071E-005
353.5000	-0.988178	278.448	0.136274	1.19484E-005
353.0000	-1.00377	278.533	0.136452	1.8731E-006
352.5000	-1.01535	278.609	0.136592	1.96135E-005
352.0000	-1.02279	278.679	0.136629	4.45114E-006
351.5000	-1.01084	278.759	0.136717	-2.96844E-006
351.0000	-0.986806	278.841	0.137223	-2.04022E-005
350.5000	-0.949737	278.928	0.137749	-3.31719E-005
350.0000	-0.923592	279.023	0.138263	-2.51196E-005
349.5000	-0.891083	279.116	0.138532	-4.10439E-005
349.0000	-0.870086	279.215	0.138724	-4.75989E-005
348.5000	-0.853284	279.298	0.138746	-4.94678E-005
348.0000	-0.830552	279.391	0.139294	-6.31605E-005
347.5000	-0.805131	279.481	0.140021	-7.36904E-005
347.0000	-0.785883	279.573	0.140632	-6.61575E-005
346.5000	-0.780061	279.676	0.14097	-7.08504E-005
346.0000	-0.785579	279.766	0.140954	-8.55484E-005
345.5000	-0.817053	279.868	0.14171	-0.000118995
345.0000	-0.840138	279.958	0.14259	-0.00013017
344.5000	-0.847239	280.043	0.143716	-0.000140242
344.0000	-0.850318	280.137	0.144989	-0.000157408
343.5000	-0.846492	280.241	0.146376	-0.000158982
343.0000	-0.840644	280.337	0.147816	-0.000182679
342.5000	-0.818927	280.435	0.149229	-0.000190149
342.0000	-0.802143	280.542	0.150618	-0.00020448
341.5000	-0.789807	280.643	0.151903	-0.000243632
341.0000	-0.767339	280.736	0.152994	-0.000243801
340.5000	-0.72025	280.841	0.15422	-0.00024478
340.0000	-0.677909	280.944	0.155374	-0.000267674
339.5000	-0.621856	281.057	0.156523	-0.000281193
339.0000	-0.557216	281.169	0.157055	-0.000304676
338.5000	-0.493433	281.285	0.157635	-0.000325357
338.0000	-0.427264	281.399	0.159032	-0.000335788
337.5000	-0.350061	281.52	0.160775	-0.000351696
337.0000	-0.25503	281.642	0.161919	-0.000362664
336.5000	-0.158206	281.777	0.1632	-0.000380418
336.0000	-0.0468146	281.912	0.164392	-0.000402557
335.5000	0.0695141	282.042	0.165705	-0.000430259
335.0000	0.184879	282.169	0.166883	-0.000436339
334.5000	0.302777	282.324	0.168027	-0.000469746
334.0000	0.42141	282.467	0.168581	-0.000492503
333.5000	0.5521	282.62	0.169374	-0.000502509
333.0000	0.681004	282.768	0.170519	-0.000508722
332.5000	0.813879	282.908	0.171386	-0.000546028
332.0000	0.945324	283.053	0.172548	-0.000596893
331.5000	1.07176	283.206	0.173856	-0.000624733
331.0000	1.20132	283.376	0.175403	-0.000650584
330.5000	1.33052	283.53	0.177264	-0.000675391
330.0000	1.45904	283.689	0.179217	-0.000706978
329.5000	1.58352	283.853	0.180879	-0.000728066
329.0000	1.70708	284.021	0.182274	-0.000763025
328.5000	1.82764	284.175	0.183762	-0.000787536
328.0000	1.95018	284.308	0.185319	-0.000818347
327.5000	2.05722	284.442	0.186637	-0.000866217
327.0000	2.16447	284.573	0.187762	-0.000910889
326.5000	2.27128	284.738	0.188987	-0.000932478
326.0000	2.36653	284.9	0.190014	-0.0009599
325.5000	2.45341	285.067	0.191608	-0.000985701
325.0000	2.54096	285.239	0.193217	-0.00102203
324.5000	2.61787	285.431	0.195129	-0.00107474
324.0000	2.6867	285.633	0.197258	-0.00111144
323.5000	2.7565	285.834	0.199509	-0.00114103
323.0000	2.8122	286.036	0.20158	-0.00119365
322.5000	2.86557	286.239	0.203682	-0.00121914
322.0000	2.91821	286.45	0.205362	-0.00125369
321.5000	2.98088	286.654	0.206901	-0.00130002
321.0000	3.04647	286.858	0.208473	-0.00132348
320.5000	3.11332	287.076	0.210552	-0.00135956
320.0000	3.18338	287.283	0.212384	-0.00140032
319.5000	3.25712	287.498	0.213926	-0.00143256
319.0000	3.33275	287.753	0.215899	-0.00143937
318.5000	3.39936	288.003	0.217738	-0.0014819
318.0000	3.47922	288.218	0.220019	-0.00151946
317.5000	3.56147	288.432	0.222838	-0.00156453
317.0000	3.63514	288.637	0.224978	-0.0015938
316.5000	3.71859	288.849	0.226932	-0.00161722
316.0000	3.80442	289.083	0.229149	-0.00163153
315.5000	3.89361	289.326	0.231617	-0.00164974
315.0000	3.99395	289.584	0.233978	-0.00165889
314.5000	4.10592	289.841	0.236347	-0.00167703
314.0000	4.21308	290.11	0.238665	-0.00170654
313.5000	4.31678	290.386	0.241314	-0.001735
313.0000	4.42212	290.695	0.244353	-0.00176985
312.5000	4.54374	291.005	0.247226	-0.0018045
312.0000	4.64539	291.331	0.250022	-0.00182648
311.5000	4.75276	291.68	0.253295	-0.00184838
311.0000	4.85768	292.039	0.256503	-0.00188345
310.5000	4.96714	292.434	0.260477	-0.0019291
310.0000	5.0773	292.829	0.264493	-0.00195907
309.5000	5.17973	293.238	0.268114	-0.00198797
309.0000	5.29087	293.707	0.271938	-0.00201165
308.5000	5.40823	294.183	0.275973	-0.00204858
308.0000	5.54027	294.64	0.280126	-0.0020908
307.5000	5.68988	295.152	0.284661	-0.0021289
307.0000	5.82331	295.648	0.289101	-0.00217407
306.5000	5.9602	296.197	0.293899	-0.00220472
306.0000	6.09331	296.741	0.298835	-0.00224304
305.5000	6.23235	297.335	0.304636	-0.00228332
305.0000	6.37371	297.926	0.310598	-0.00234983
304.5000	6.52114	298.571	0.316854	-0.00239278
304.0000	6.6751	299.254	0.323467	-0.00243677
303.5000	6.82657	299.924	0.330089	-0.00248598
303.0000	6.95686	300.652	0.337302	-0.00253862
302.5000	7.08677	301.426	0.345191	-0.00259849
302.0000	7.2104	302.224	0.352978	-0.00263403
301.5000	7.33123	303.032	0.360555	-0.00268582
301.0000	7.44083	303.864	0.368601	-0.00272498
300.5000	7.54017	304.618	0.376171	-0.00276404
300.0000	7.64318	305.536	0.385402	-0.00280114

##### Extended Information
[Comments]
Sample name	60% R-JS after DT 1
Comment
User
Division
Company	Labo systeme complexes hors equilibre

[Detailed Information]
Creation date	10/16/2025 2:45 PM

Data array type	Linear data array * 4
Horizontal axis	Wavelength [nm]
Vertical axis(1)	CD [mdeg]
Vertical axis(2)	HT [V]
Vertical axis(3)	Abs
Vertical axis(4)	LD [dOD]
Start	700 nm
End	300 nm
Data interval	0.5 nm
Data points	801     

[Measurement Information]
Instrument name	CD Jasco
Model name	J-1500
Serial No.	A005261638

Detector	PM-539
Detector S/N	A0052PM539
  Lock-in amp.	X mode
  HT volt	Auto

Detector	EXPML-535
Detector S/N	A0001
  Lock-in amp.	X mode
  HT volt	Auto

Measurement date	10/16/2025 2:45 PM

Overload detect	1
Photometric mode	CD, HT, Abs, LD
Measure range	700 - 300 nm
Data pitch	0.5 nm
CD scale	200 mdeg/1.0 dOD
FL scale	200 mdeg/1.0 dOD
D.I.T.	1 sec
Bandwidth	1.00 nm
Start mode	Immediately
Scanning speed	500 nm/min
Baseline correction	Baseline
Shutter control	Auto

Concentration	50 umol/L
Solvent	water

