TITLE	JS187+JS190_5E-5_H2O_20-80
DATA TYPE	
ORIGIN	JASCO
OWNER	
DATE	24/01/23
TIME	11:34:28
SPECTROMETER/DATA SYSTEM	
LOCALE	1033
RESOLUTION	
DELTAX	-0.5
XUNITS	NANOMETERS
YUNITS	CD [mdeg]
Y2UNITS	LD [dOD]
Y3UNITS	ABSORBANCE
Y4UNITS	HT [V]
FIRSTX	  700.0000
LASTX	  220.0000
NPOINTS	     961
FIRSTY	     1.11544
MAXY	    25.53232
MINY	   -29.05764
XYDATA
700.0000	1.11544	0.000242173	-0.0578997	298.848
699.5000	0.83259	0.000241232	-0.0591448	298.529
699.0000	0.712711	0.000232167	-0.0605604	298.149
698.5000	1.02039	0.000250159	-0.061504	297.73
698.0000	1.17385	0.000244851	-0.0628617	297.274
697.5000	1.08294	0.000272883	-0.064685	296.799
697.0000	1.18313	0.00030066	-0.066791	296.28
696.5000	1.13274	0.000314182	-0.0679584	295.768
696.0000	1.13771	0.000315841	-0.0684251	295.205
695.5000	1.33759	0.000302916	-0.0683565	294.694
695.0000	1.2751	0.00030062	-0.0677371	294.236
694.5000	1.03863	0.000295464	-0.067032	293.806
694.0000	1.27635	0.000300424	-0.0651191	293.413
693.5000	1.28137	0.000317526	-0.0627997	293.062
693.0000	1.36375	0.000308002	-0.0597505	292.777
692.5000	1.28326	0.000305813	-0.0566354	292.522
692.0000	1.32102	0.000318695	-0.0537805	292.281
691.5000	1.38776	0.000295113	-0.0507214	292.07
691.0000	1.4405	0.000295082	-0.0478353	291.86
690.5000	1.4164	0.000297377	-0.0457345	291.681
690.0000	1.41194	0.000295829	-0.0438704	291.528
689.5000	1.22683	0.000290305	-0.0414527	291.448
689.0000	1.05917	0.000268949	-0.0381024	291.437
688.5000	1.01355	0.000256304	-0.0345256	291.527
688.0000	0.932478	0.000274183	-0.0301033	291.721
687.5000	0.673961	0.000276956	-0.0256447	291.967
687.0000	0.419421	0.000269597	-0.0221611	292.2
686.5000	0.395345	0.000240747	-0.0194234	292.452
686.0000	0.267203	0.000240063	-0.0182585	292.69
685.5000	0.243923	0.000232568	-0.0182477	292.923
685.0000	0.145384	0.000224095	-0.0186637	293.151
684.5000	-0.125091	0.000206566	-0.0197157	293.363
684.0000	0.116203	0.0002162	-0.0212222	293.569
683.5000	0.133844	0.000228418	-0.0220791	293.798
683.0000	0.0544923	0.000240131	-0.0230524	294.03
682.5000	-0.0916382	0.000222894	-0.0231703	294.296
682.0000	0.368026	0.000226231	-0.0234042	294.589
681.5000	0.52663	0.000227228	-0.0232873	294.868
681.0000	0.669979	0.000236568	-0.0237248	295.108
680.5000	1.06063	0.000228117	-0.024518	295.291
680.0000	0.879447	0.000217313	-0.0268365	295.4
679.5000	0.965673	0.000210351	-0.0297101	295.45
679.0000	1.11818	0.00023865	-0.0335137	295.459
678.5000	1.31753	0.000240972	-0.0360308	295.455
678.0000	1.34241	0.000249323	-0.0383001	295.435
677.5000	1.60549	0.000273581	-0.0396821	295.408
677.0000	1.55249	0.000282442	-0.0403703	295.375
676.5000	1.94306	0.000295277	-0.0402368	295.348
676.0000	2.05872	0.000295541	-0.0399804	295.33
675.5000	1.91236	0.000288414	-0.0395673	295.325
675.0000	2.05785	0.000274344	-0.0388203	295.338
674.5000	1.82935	0.000267661	-0.0378112	295.346
674.0000	1.55291	0.00027605	-0.0367737	295.358
673.5000	1.41732	0.000293611	-0.0356039	295.383
673.0000	1.30265	0.000303332	-0.0353262	295.417
672.5000	0.90308	0.000316222	-0.0351574	295.452
672.0000	1.00005	0.000341636	-0.0346578	295.495
671.5000	0.9414	0.000353513	-0.0337269	295.536
671.0000	0.977083	0.000343333	-0.0326053	295.598
670.5000	0.884748	0.000347946	-0.0312571	295.664
670.0000	0.862254	0.000372804	-0.0301086	295.733
669.5000	1.1278	0.000376431	-0.0294604	295.809
669.0000	1.17158	0.000358323	-0.0287325	295.89
668.5000	1.10053	0.000331634	-0.0279543	295.98
668.0000	0.985963	0.000300567	-0.0274133	296.08
667.5000	1.05093	0.00030308	-0.0269543	296.188
667.0000	0.873058	0.000303385	-0.0268503	296.29
666.5000	0.820591	0.000293119	-0.0266234	296.402
666.0000	0.80987	0.000296455	-0.0270692	296.526
665.5000	0.622041	0.000278884	-0.0270875	296.651
665.0000	0.89555	0.000261405	-0.0263003	296.777
664.5000	1.25907	0.000260252	-0.025304	296.893
664.0000	1.33407	0.000244416	-0.0251359	296.996
663.5000	1.31343	0.000241058	-0.0260535	297.088
663.0000	1.49079	0.000237524	-0.0263866	297.157
662.5000	1.6143	0.000251217	-0.0267491	297.228
662.0000	1.51636	0.000227416	-0.0272202	297.283
661.5000	1.12338	0.000219965	-0.0270362	297.339
661.0000	1.1107	0.000227652	-0.0274211	297.367
660.5000	1.03559	0.000246398	-0.0278721	297.396
660.0000	1.10732	0.000260003	-0.0281641	297.407
659.5000	1.04424	0.000276574	-0.0290514	297.393
659.0000	0.997082	0.000258205	-0.0295364	297.381
658.5000	1.03106	0.000253652	-0.0300896	297.329
658.0000	1.03154	0.000255437	-0.0302165	297.267
657.5000	1.40914	0.000256446	-0.0311281	297.165
657.0000	1.09925	0.00025276	-0.0310564	297.053
656.5000	1.14874	0.000260391	-0.0322688	296.904
656.0000	1.23592	0.000271928	-0.0332146	296.755
655.5000	1.35234	0.000246555	-0.0326105	296.603
655.0000	0.984328	0.000239537	-0.0325761	296.449
654.5000	0.72829	0.000224613	-0.0330171	296.298
654.0000	0.575588	0.000226132	-0.0325065	296.16
653.5000	0.543739	0.000231977	-0.0312415	296.035
653.0000	0.411527	0.000227071	-0.029565	295.929
652.5000	0.377606	0.000248834	-0.0279208	295.847
652.0000	0.604223	0.000248739	-0.0259689	295.802
651.5000	0.630377	0.00025704	-0.0235639	295.782
651.0000	0.545943	0.00025724	-0.0207349	295.785
650.5000	0.513703	0.000271201	-0.0185366	295.825
650.0000	0.661519	0.00027517	-0.0158721	295.894
649.5000	0.641103	0.000264839	-0.0137546	295.985
649.0000	0.686005	0.000272727	-0.0114526	296.094
648.5000	0.950294	0.000269715	-0.00975564	296.254
648.0000	0.864491	0.000271295	-0.00794403	296.416
647.5000	0.755644	0.000285573	-0.00632633	296.586
647.0000	0.599207	0.00031241	-0.00541192	296.761
646.5000	0.872845	0.000293109	-0.00472511	296.936
646.0000	1.17617	0.000291084	-0.00330285	297.098
645.5000	1.03635	0.000296583	-0.00279815	297.247
645.0000	1.19685	0.000289536	-0.00357163	297.37
644.5000	1.18335	0.000286623	-0.0041015	297.469
644.0000	0.968332	0.000268463	-0.00458847	297.536
643.5000	0.876231	0.000264028	-0.00539072	297.584
643.0000	0.968202	0.00026117	-0.00612891	297.61
642.5000	1.1037	0.000267055	-0.00677754	297.617
642.0000	1.15311	0.000278028	-0.00730711	297.598
641.5000	1.27372	0.00028069	-0.00786526	297.569
641.0000	1.16623	0.000277832	-0.00816333	297.518
640.5000	0.951039	0.000288517	-0.00810973	297.45
640.0000	0.979432	0.000299122	-0.00764699	297.387
639.5000	1.00651	0.00028198	-0.00691825	297.307
639.0000	1.19916	0.000279462	-0.00634263	297.228
638.5000	1.4054	0.000261205	-0.00528773	297.142
638.0000	1.28234	0.000268614	-0.00483164	297.052
637.5000	1.51642	0.00026856	-0.00475172	296.945
637.0000	1.6577	0.000280262	-0.00360525	296.855
636.5000	1.64537	0.000274701	-0.00269034	296.77
636.0000	1.82678	0.000265237	-0.00227383	296.706
635.5000	2.146	0.00027686	-0.00181644	296.637
635.0000	2.03371	0.000294353	-0.000906467	296.575
634.5000	1.94929	0.000285281	-2.52858E-005	296.524
634.0000	1.70429	0.000288592	0.000576938	296.459
633.5000	1.7561	0.00028596	0.000918238	296.407
633.0000	1.93121	0.000289943	0.00173915	296.353
632.5000	1.53317	0.000289206	0.0019432	296.303
632.0000	1.64267	0.000293716	0.00218034	296.256
631.5000	1.52346	0.000294758	0.00266549	296.205
631.0000	1.55508	0.000309443	0.00303098	296.147
630.5000	1.60637	0.000320445	0.0033811	296.09
630.0000	1.40713	0.000334961	0.00387192	296.038
629.5000	1.54132	0.000323468	0.00447761	295.983
629.0000	1.49297	0.000345773	0.0048246	295.928
628.5000	1.29526	0.000334877	0.00493307	295.868
628.0000	1.40721	0.000359762	0.00521803	295.799
627.5000	1.29929	0.000368749	0.00565405	295.712
627.0000	1.14965	0.000358558	0.00574472	295.641
626.5000	1.25372	0.000341161	0.00554096	295.572
626.0000	1.20201	0.000335093	0.00549801	295.509
625.5000	1.39908	0.000328543	0.00605633	295.445
625.0000	1.35869	0.000335089	0.00683702	295.395
624.5000	1.48464	0.000335031	0.00776002	295.361
624.0000	1.56662	0.000353874	0.00853999	295.334
623.5000	1.57886	0.000370226	0.0094443	295.323
623.0000	1.39548	0.000369562	0.010291	295.322
622.5000	1.4043	0.000381126	0.0112907	295.333
622.0000	1.29882	0.000382154	0.0119903	295.351
621.5000	1.37744	0.000390146	0.01282	295.389
621.0000	1.39487	0.000398107	0.0137135	295.436
620.5000	1.36246	0.000398567	0.0143122	295.492
620.0000	1.61089	0.000405843	0.0147195	295.553
619.5000	1.48042	0.000391528	0.0155523	295.644
619.0000	1.5205	0.000378108	0.0169838	295.765
618.5000	1.54719	0.00037269	0.0186276	295.882
618.0000	1.47021	0.000366852	0.020376	296.01
617.5000	1.71064	0.000383435	0.020976	296.132
617.0000	1.61497	0.000397716	0.0213444	296.265
616.5000	1.72857	0.000392034	0.021712	296.392
616.0000	1.8385	0.000374829	0.0225007	296.517
615.5000	1.82757	0.000351139	0.0228828	296.64
615.0000	1.99907	0.000341423	0.0231757	296.764
614.5000	2.18372	0.00035607	0.0233469	296.894
614.0000	2.16837	0.000331018	0.0234164	297.01
613.5000	2.2352	0.000323821	0.0237709	297.131
613.0000	2.17201	0.00033331	0.024024	297.259
612.5000	2.22116	0.000322426	0.0244075	297.389
612.0000	2.39394	0.000339916	0.0248871	297.518
611.5000	2.55058	0.000351781	0.0255767	297.636
611.0000	2.58872	0.000361115	0.0256722	297.748
610.5000	2.82104	0.000358213	0.0256903	297.859
610.0000	2.94499	0.000358316	0.0254664	297.954
609.5000	2.94457	0.00035882	0.0260976	298.069
609.0000	2.8351	0.000342503	0.0266204	298.171
608.5000	2.72136	0.000356374	0.0274871	298.27
608.0000	2.71156	0.000354899	0.0278322	298.35
607.5000	2.7484	0.000340254	0.0276749	298.422
607.0000	2.71266	0.000338148	0.0279611	298.5
606.5000	2.50574	0.000326388	0.0285148	298.591
606.0000	2.56654	0.000346824	0.0295973	298.666
605.5000	2.40759	0.000353143	0.0303355	298.737
605.0000	2.3602	0.000347812	0.031517	298.817
604.5000	2.30506	0.000358866	0.0322104	298.872
604.0000	2.12956	0.000342926	0.0332215	298.93
603.5000	1.95465	0.000338463	0.0344055	298.987
603.0000	1.91189	0.000338635	0.0351291	299.041
602.5000	2.04356	0.000330597	0.0363498	299.096
602.0000	2.24009	0.00033611	0.0378525	299.16
601.5000	2.08766	0.000342558	0.0390325	299.207
601.0000	2.06976	0.000342984	0.0402428	299.256
600.5000	2.28691	0.000360626	0.0419094	299.296
600.0000	2.21565	0.000353755	0.0434265	299.345
599.5000	1.99965	0.000363734	0.0456979	299.382
599.0000	2.17498	0.000393691	0.0475557	299.413
598.5000	2.27082	0.000413365	0.0498596	299.429
598.0000	2.36033	0.000425581	0.0519329	299.463
597.5000	2.32767	0.000419748	0.0538109	299.496
597.0000	2.65881	0.00042149	0.0559949	299.529
596.5000	2.61349	0.000410686	0.058135	299.534
596.0000	2.79503	0.000444963	0.0605597	299.56
595.5000	2.85793	0.000432448	0.0628883	299.593
595.0000	2.71785	0.000431174	0.0653898	299.603
594.5000	2.81337	0.000449308	0.0680536	299.629
594.0000	2.83933	0.000464385	0.0703099	299.668
593.5000	2.72925	0.0004726	0.0730385	299.698
593.0000	2.64651	0.000474869	0.0762645	299.742
592.5000	2.62595	0.000492092	0.0790267	299.808
592.0000	2.54824	0.000493337	0.0816863	299.887
591.5000	2.39666	0.000488489	0.0841313	299.973
591.0000	2.38222	0.000490657	0.0871588	300.071
590.5000	2.16374	0.0004929	0.0901348	300.204
590.0000	2.27999	0.000496618	0.0932131	300.338
589.5000	2.03361	0.000487709	0.0965172	300.478
589.0000	1.81664	0.000495927	0.099971	300.637
588.5000	1.54067	0.000503238	0.103493	300.828
588.0000	1.46882	0.000495913	0.107532	301.053
587.5000	1.32619	0.000492011	0.111676	301.303
587.0000	1.16552	0.00049049	0.115943	301.601
586.5000	0.932366	0.000489393	0.119973	301.886
586.0000	0.575858	0.000487094	0.124676	302.185
585.5000	0.388698	0.000481898	0.129063	302.506
585.0000	0.12919	0.000486757	0.13356	302.853
584.5000	-0.105342	0.00049937	0.137892	303.186
584.0000	-0.123033	0.000503821	0.143141	303.583
583.5000	-0.362953	0.000520964	0.148645	304.001
583.0000	-0.569187	0.000523965	0.154935	304.474
582.5000	-0.807604	0.00052843	0.160956	304.961
582.0000	-1.19125	0.000525355	0.167202	305.467
581.5000	-1.46738	0.000537233	0.173953	306.026
581.0000	-2.02207	0.000532252	0.181235	306.612
580.5000	-2.24951	0.000530866	0.188744	307.226
580.0000	-2.73378	0.000534195	0.196122	307.848
579.5000	-3.1623	0.000540681	0.203578	308.492
579.0000	-3.37334	0.00056787	0.211499	309.172
578.5000	-3.96431	0.000576156	0.220093	309.877
578.0000	-4.27705	0.000577122	0.228759	310.62
577.5000	-4.81284	0.000595659	0.237642	311.443
577.0000	-5.35152	0.000595493	0.247356	312.262
576.5000	-6.11117	0.000590396	0.25806	313.174
576.0000	-6.88699	0.000579938	0.268593	314.078
575.5000	-7.54469	0.000593195	0.279829	315.037
575.0000	-8.29867	0.000595884	0.290169	315.968
574.5000	-8.95465	0.000606402	0.301863	317.002
574.0000	-9.65478	0.000615597	0.313695	318.024
573.5000	-10.3844	0.000635383	0.325857	319.093
573.0000	-10.982	0.000652682	0.338387	320.249
572.5000	-11.6189	0.000655237	0.350354	321.36
572.0000	-12.409	0.000657281	0.363941	322.642
571.5000	-13.4298	0.000650976	0.377602	323.912
571.0000	-14.5919	0.00065385	0.3925	325.252
570.5000	-15.5495	0.000655301	0.407555	326.666
570.0000	-16.538	0.000643642	0.422133	328.049
569.5000	-17.7195	0.000641322	0.438157	329.52
569.0000	-18.9847	0.000645398	0.454163	330.989
568.5000	-19.7429	0.00064587	0.469025	332.414
568.0000	-20.6288	0.000642472	0.484185	333.903
567.5000	-21.3009	0.000661873	0.499586	335.414
567.0000	-22.3188	0.000663442	0.514894	336.882
566.5000	-23.1504	0.000648802	0.52997	338.313
566.0000	-24.0046	0.00065327	0.544799	339.722
565.5000	-24.6405	0.000620318	0.558976	341.104
565.0000	-25.3378	0.000595593	0.573092	342.449
564.5000	-26.1241	0.000584276	0.587116	343.781
564.0000	-26.7425	0.000597783	0.600258	344.996
563.5000	-27.0159	0.000615075	0.612525	346.157
563.0000	-27.6759	0.000606508	0.624773	347.349
562.5000	-28.2417	0.000611411	0.636118	348.427
562.0000	-28.481	0.000632445	0.646789	349.431
561.5000	-28.8383	0.000604422	0.658193	350.463
561.0000	-29.0576	0.000608956	0.668586	351.432
560.5000	-28.7974	0.000622192	0.678102	352.321
560.0000	-28.5638	0.000620021	0.687307	353.15
559.5000	-28.3317	0.000596084	0.695975	353.876
559.0000	-28.039	0.000592977	0.702995	354.451
558.5000	-27.9424	0.000571479	0.708798	354.936
558.0000	-27.4442	0.000565912	0.713521	355.315
557.5000	-27.1264	0.000557707	0.718041	355.638
557.0000	-26.9046	0.000589509	0.721991	355.884
556.5000	-26.6048	0.000593043	0.72476	356.055
556.0000	-26.1525	0.000590338	0.726286	356.147
555.5000	-25.2827	0.000574802	0.727488	356.167
555.0000	-24.6431	0.00056403	0.728039	356.095
554.5000	-23.7441	0.000555772	0.728289	355.949
554.0000	-23.0305	0.000543251	0.727228	355.723
553.5000	-22.7506	0.000545892	0.725645	355.439
553.0000	-21.925	0.000562634	0.723724	355.129
552.5000	-21.4629	0.000543261	0.721969	354.783
552.0000	-21.0442	0.000532855	0.719493	354.355
551.5000	-20.944	0.000524268	0.716801	353.916
551.0000	-20.4453	0.000508428	0.713423	353.449
550.5000	-20.4214	0.000495793	0.709997	352.959
550.0000	-19.8462	0.000521483	0.706411	352.424
549.5000	-19.2598	0.000532229	0.703183	351.908
549.0000	-18.7302	0.000533976	0.699386	351.396
548.5000	-18.2883	0.000518119	0.6957	350.908
548.0000	-18.1781	0.000518746	0.692774	350.375
547.5000	-18.0293	0.000547404	0.690064	349.89
547.0000	-17.7836	0.000577248	0.687409	349.39
546.5000	-17.6468	0.000569751	0.684762	348.959
546.0000	-17.6521	0.000567988	0.681893	348.577
545.5000	-17.3981	0.000594943	0.680288	348.217
545.0000	-17.3192	0.000592928	0.679041	347.944
544.5000	-17.7073	0.000597658	0.677814	347.662
544.0000	-17.5651	0.000596596	0.676664	347.435
543.5000	-17.7896	0.000598886	0.676252	347.273
543.0000	-17.7684	0.000614868	0.676369	347.152
542.5000	-17.7456	0.000635982	0.677199	347.076
542.0000	-17.9908	0.000653634	0.67804	347.036
541.5000	-18.2992	0.000634335	0.679372	347.069
541.0000	-18.6909	0.000641631	0.680769	347.132
540.5000	-19.3265	0.000626547	0.683333	347.243
540.0000	-19.5881	0.000621757	0.686372	347.39
539.5000	-19.938	0.000623762	0.689552	347.605
539.0000	-20.5332	0.000592717	0.69311	347.897
538.5000	-20.9952	0.000572197	0.69728	348.234
538.0000	-21.4074	0.000590585	0.702117	348.598
537.5000	-21.8933	0.0005686	0.707465	349.028
537.0000	-22.1266	0.000559683	0.712989	349.5
536.5000	-22.3027	0.000567165	0.718812	349.99
536.0000	-22.6093	0.000563929	0.725577	350.562
535.5000	-22.6541	0.000603165	0.732376	351.148
535.0000	-23.0944	0.000611507	0.740001	351.804
534.5000	-23.7539	0.000607239	0.747333	352.443
534.0000	-23.4892	0.000609397	0.755256	353.15
533.5000	-23.9665	0.000602456	0.763215	353.885
533.0000	-24.5486	0.000576078	0.770906	354.603
532.5000	-24.5666	0.000577217	0.778902	355.363
532.0000	-24.6049	0.000604303	0.787655	356.192
531.5000	-24.6708	0.000586302	0.796856	357.056
531.0000	-24.6546	0.000593756	0.807	357.958
530.5000	-24.4055	0.000606993	0.816486	358.834
530.0000	-24.1925	0.000600978	0.826074	359.74
529.5000	-24.5256	0.000576236	0.835393	360.619
529.0000	-24.4991	0.00062669	0.844219	361.416
528.5000	-24.373	0.000643626	0.853068	362.24
528.0000	-24.3555	0.000639772	0.861517	363.025
527.5000	-24.5146	0.000651617	0.870382	363.829
527.0000	-24.1152	0.000641084	0.880021	364.705
526.5000	-23.7209	0.000634569	0.888726	365.519
526.0000	-23.4212	0.00064356	0.897791	366.339
525.5000	-23.3329	0.000621923	0.906619	367.132
525.0000	-22.3724	0.000643147	0.915112	367.894
524.5000	-21.5256	0.000663191	0.923119	368.591
524.0000	-21.324	0.000650513	0.930464	369.222
523.5000	-20.8051	0.00066145	0.937442	369.847
523.0000	-20.3792	0.000643536	0.943935	370.42
522.5000	-19.6159	0.000673642	0.949788	370.952
522.0000	-19.09	0.000651237	0.955877	371.479
521.5000	-18.456	0.000664009	0.962084	371.995
521.0000	-17.8425	0.000664261	0.967712	372.468
520.5000	-16.9465	0.000626176	0.973138	372.92
520.0000	-15.8867	0.000606156	0.977741	373.293
519.5000	-15.3948	0.000577789	0.982486	373.65
519.0000	-14.6105	0.000555832	0.986681	373.976
518.5000	-13.8771	0.000563097	0.990167	374.258
518.0000	-12.8942	0.000536279	0.994176	374.56
517.5000	-12.2535	0.000531356	0.998089	374.843
517.0000	-11.5027	0.000547053	1.0021	375.11
516.5000	-10.7451	0.000541657	1.00594	375.354
516.0000	-9.95565	0.000510245	1.00954	375.596
515.5000	-9.44323	0.000477478	1.0124	375.806
515.0000	-9.11558	0.00045863	1.01516	375.995
514.5000	-8.90319	0.000452774	1.01782	376.186
514.0000	-8.40473	0.000450789	1.02026	376.342
513.5000	-8.02827	0.000422201	1.02281	376.501
513.0000	-7.45492	0.000406499	1.02504	376.665
512.5000	-6.77548	0.00043439	1.02768	376.846
512.0000	-6.54003	0.000450344	1.03032	377.022
511.5000	-6.13668	0.000471684	1.03262	377.199
511.0000	-5.86768	0.000492919	1.03488	377.354
510.5000	-5.83058	0.000482258	1.03737	377.507
510.0000	-5.88798	0.00047271	1.03967	377.641
509.5000	-5.74323	0.000477739	1.04183	377.777
509.0000	-5.29741	0.000496018	1.04375	377.9
508.5000	-5.28958	0.000448381	1.04561	378.005
508.0000	-4.84542	0.00045971	1.0477	378.099
507.5000	-4.06426	0.000477666	1.04993	378.2
507.0000	-3.71079	0.000459592	1.05245	378.329
506.5000	-2.82173	0.000433036	1.05479	378.441
506.0000	-2.6657	0.0004184	1.05671	378.553
505.5000	-2.13803	0.000435255	1.05872	378.672
505.0000	-1.57568	0.000455399	1.06072	378.782
504.5000	-1.29917	0.000475307	1.06273	378.878
504.0000	-0.580364	0.000436717	1.06444	378.946
503.5000	-0.251361	0.000443973	1.06586	378.988
503.0000	0.306688	0.000436751	1.06722	379.005
502.5000	0.975416	0.000436484	1.06839	379.021
502.0000	1.29016	0.000426948	1.06941	379.027
501.5000	1.82701	0.000437314	1.07043	379.013
501.0000	2.24749	0.000455912	1.07139	378.98
500.5000	3.11269	0.000458116	1.0722	378.9
500.0000	3.59995	0.000462387	1.07269	378.767
499.5000	3.34641	0.000446785	1.07227	378.555
499.0000	3.90135	0.000478647	1.07121	378.195
498.5000	4.36247	0.000493389	1.0697	377.696
498.0000	4.755	0.000520225	1.06785	377.064
497.5000	4.99941	0.000513672	1.06634	376.294
497.0000	5.55788	0.000496917	1.06574	375.526
496.5000	6.24767	0.000493077	1.06645	374.831
496.0000	6.72804	0.000492642	1.06871	374.37
495.5000	6.82676	0.000478721	1.07084	374.035
495.0000	7.29892	0.000436235	1.07154	373.772
494.5000	7.73285	0.000455584	1.07122	373.508
494.0000	8.45072	0.000459885	1.07052	373.25
493.5000	8.85771	0.000419433	1.06966	372.973
493.0000	9.41298	0.000372884	1.0689	372.722
492.5000	9.77031	0.0003449	1.068	372.455
492.0000	10.5129	0.000363369	1.06681	372.174
491.5000	11.8208	0.000387043	1.06544	371.919
491.0000	12.3799	0.000350271	1.06422	371.682
490.5000	12.7341	0.000349798	1.06292	371.477
490.0000	13.3857	0.000350134	1.06168	371.333
489.5000	14.4581	0.00033022	1.06005	371.211
489.0000	15.0117	0.000316392	1.0576	371.028
488.5000	15.554	0.000306231	1.0537	370.698
488.0000	16.2246	0.000297321	1.04801	370.091
487.5000	16.9005	0.000307717	1.04206	369.283
487.0000	17.4843	0.000296608	1.03737	368.407
486.5000	18.3613	0.000277533	1.03245	367.379
486.0000	19.131	0.000278363	1.02828	366.382
485.5000	19.4041	0.000278919	1.02579	365.452
485.0000	19.7075	0.000306885	1.02422	364.626
484.5000	20.2378	0.000297277	1.02192	363.911
484.0000	20.427	0.000282984	1.0187	363.24
483.5000	20.3076	0.000275924	1.01528	362.637
483.0000	20.7433	0.000275126	1.01114	362.044
482.5000	21.3631	0.000282513	1.00696	361.54
482.0000	21.8636	0.000295345	1.00242	361.058
481.5000	22.1745	0.00027929	0.997797	360.565
481.0000	22.0733	0.000263695	0.993253	360.089
480.5000	22.6264	0.000285375	0.988462	359.634
480.0000	22.6278	0.000277939	0.983091	359.16
479.5000	22.9074	0.000272394	0.976941	358.612
479.0000	23.1949	0.000270581	0.96794	357.784
478.5000	23.3623	0.000272703	0.958759	356.749
478.0000	23.3556	0.000271243	0.952172	355.63
477.5000	23.2444	0.000260422	0.949845	354.801
477.0000	23.359	0.000276778	0.946887	354.094
476.5000	23.7207	0.000273407	0.938816	353.117
476.0000	23.8693	0.000294766	0.929204	351.914
475.5000	24.3711	0.000302233	0.91941	350.484
475.0000	24.7587	0.000294402	0.909886	348.868
474.5000	25.109	0.000299858	0.901445	347.185
474.0000	24.847	0.000274592	0.893289	345.354
473.5000	24.8936	0.000254674	0.884466	343.278
473.0000	24.9659	0.000264619	0.875984	341.081
472.5000	24.9454	0.00028199	0.870096	338.932
472.0000	24.992	0.000307007	0.867683	337.229
471.5000	25.0887	0.0003232	0.866053	335.885
471.0000	24.9788	0.000338419	0.864657	335.094
470.5000	24.9821	0.000350151	0.863457	334.631
470.0000	25.084	0.000347031	0.86048	334.372
469.5000	25.0591	0.000329623	0.852723	333.927
469.0000	25.5323	0.000308688	0.839466	332.957
468.5000	25.4487	0.000310546	0.827728	331.733
468.0000	25.3059	0.000310328	0.819589	330.543
467.5000	25.161	0.000311319	0.814109	329.594
467.0000	25.01	0.000316268	0.810192	328.904
466.5000	24.9382	0.000323517	0.80673	328.432
466.0000	24.9476	0.000319723	0.802251	328.126
465.5000	24.8028	0.000346242	0.797431	328.043
465.0000	24.5669	0.000360004	0.791842	328.196
464.5000	24.6593	0.000365579	0.783431	328.371
464.0000	24.1702	0.000351641	0.771204	328.237
463.5000	24.0603	0.000369328	0.757302	327.724
463.0000	23.9298	0.000363162	0.744566	326.957
462.5000	23.9331	0.000369565	0.734313	326.116
462.0000	23.3209	0.00038835	0.725763	325.277
461.5000	23.3719	0.000419666	0.718341	324.576
461.0000	23.1368	0.000438356	0.711159	324.013
460.5000	22.8939	0.000452721	0.703312	323.542
460.0000	22.9182	0.00048663	0.695498	323.161
459.5000	22.8225	0.000483797	0.686727	322.779
459.0000	22.6144	0.000513993	0.676278	322.276
458.5000	22.4923	0.000513022	0.665259	321.674
458.0000	22.188	0.000531455	0.653346	320.875
457.5000	22.0567	0.000529597	0.641405	319.865
457.0000	21.7739	0.000542105	0.630736	318.748
456.5000	21.6674	0.000548785	0.622275	317.725
456.0000	21.2519	0.000546123	0.61255	316.695
455.5000	21.1383	0.000550778	0.599907	315.406
455.0000	20.8597	0.000551156	0.589086	314.114
454.5000	20.54	0.000554056	0.581771	313.031
454.0000	20.3386	0.000565278	0.574929	312.17
453.5000	20.1582	0.000556436	0.565941	311.409
453.0000	19.7871	0.000554244	0.556216	310.649
452.5000	19.4861	0.000561287	0.546697	309.865
452.0000	19.0027	0.000574437	0.537362	309.038
451.5000	18.6373	0.000565998	0.527601	308.176
451.0000	18.2444	0.000569318	0.518315	307.351
450.5000	17.7205	0.000572151	0.508696	306.479
450.0000	17.2772	0.00058404	0.50048	305.694
449.5000	16.8602	0.000610152	0.493784	305.089
449.0000	16.5487	0.000613574	0.487171	304.618
448.5000	16.0635	0.000619215	0.477999	304.052
448.0000	15.9351	0.000633065	0.468517	303.395
447.5000	15.7423	0.000652494	0.462094	302.899
447.0000	15.3096	0.000652749	0.457658	302.656
446.5000	15.0645	0.000671234	0.451055	302.43
446.0000	14.8813	0.000677962	0.440148	301.927
445.5000	14.3903	0.000681971	0.429559	301.183
445.0000	13.9616	0.000701854	0.420799	300.337
444.5000	13.5689	0.000697466	0.412501	299.459
444.0000	13.2518	0.000706291	0.404593	298.593
443.5000	13.0558	0.000717743	0.396815	297.671
443.0000	12.8436	0.000730936	0.390601	296.884
442.5000	12.5438	0.000735792	0.38474	296.14
442.0000	12.5801	0.000744879	0.379294	295.509
441.5000	12.2939	0.000742369	0.372825	294.814
441.0000	12.0207	0.000742217	0.366792	294.178
440.5000	11.7332	0.000759529	0.361119	293.579
440.0000	11.591	0.000749088	0.355015	292.945
439.5000	11.3339	0.000755643	0.348607	292.291
439.0000	10.9469	0.000754055	0.341708	291.599
438.5000	10.7501	0.000763502	0.334457	290.896
438.0000	10.4215	0.000763942	0.327186	290.212
437.5000	10.2048	0.000761416	0.320449	289.568
437.0000	10.0633	0.000757044	0.313177	288.895
436.5000	9.89121	0.000754832	0.307615	288.347
436.0000	9.75181	0.000776897	0.302514	287.858
435.5000	9.69126	0.000779117	0.296837	287.381
435.0000	9.32431	0.000767902	0.290622	286.893
434.5000	9.12456	0.000782293	0.284362	286.404
434.0000	8.754	0.000773762	0.278132	285.884
433.5000	8.46373	0.000782733	0.272413	285.382
433.0000	8.29775	0.000782109	0.266786	284.839
432.5000	8.26466	0.000785719	0.261337	284.306
432.0000	8.09112	0.00078321	0.25557	283.75
431.5000	7.96954	0.000777445	0.250047	283.207
431.0000	7.79249	0.000781028	0.244712	282.667
430.5000	7.53321	0.0007932	0.239545	282.133
430.0000	7.3522	0.0007901	0.234786	281.622
429.5000	7.08608	0.000796142	0.229855	281.1
429.0000	6.89004	0.000797088	0.224904	280.572
428.5000	6.75696	0.000797048	0.219944	280.052
428.0000	6.4497	0.000801468	0.21443	279.508
427.5000	6.16206	0.00078296	0.209888	279.031
427.0000	5.78931	0.000783265	0.205503	278.558
426.5000	5.69851	0.000792688	0.201239	278.088
426.0000	5.44416	0.000791862	0.196673	277.572
425.5000	5.38625	0.000788536	0.192255	277.031
425.0000	5.14387	0.000784784	0.18754	276.455
424.5000	4.97689	0.000785631	0.183121	275.874
424.0000	4.74098	0.000781176	0.179313	275.33
423.5000	4.62491	0.000790451	0.176246	274.855
423.0000	4.43375	0.000799532	0.17281	274.413
422.5000	4.24951	0.000798045	0.169223	274.016
422.0000	4.08159	0.00078951	0.165476	273.633
421.5000	3.9876	0.000800578	0.161781	273.264
421.0000	4.10164	0.000792504	0.158334	272.913
420.5000	4.01389	0.000799934	0.154983	272.574
420.0000	3.75893	0.000799073	0.151776	272.233
419.5000	3.69352	0.000802059	0.148536	271.871
419.0000	3.69403	0.000810709	0.1453	271.521
418.5000	3.57413	0.000805072	0.142005	271.201
418.0000	3.29846	0.000806013	0.13929	270.91
417.5000	3.28855	0.000816172	0.136389	270.622
417.0000	3.08102	0.000819974	0.134123	270.375
416.5000	3.13311	0.000811541	0.132141	270.189
416.0000	3.04068	0.000801808	0.129744	270.029
415.5000	2.91661	0.000801512	0.126627	269.821
415.0000	2.76698	0.000804179	0.123694	269.593
414.5000	2.7308	0.000793503	0.121156	269.327
414.0000	2.53744	0.000797483	0.119144	269.066
413.5000	2.3869	0.000796376	0.117281	268.8
413.0000	2.2184	0.000804309	0.11547	268.552
412.5000	2.16811	0.000802617	0.113756	268.336
412.0000	2.13222	0.000805535	0.112248	268.147
411.5000	2.16609	0.00080453	0.110238	267.938
411.0000	2.08093	0.000794151	0.108565	267.762
410.5000	1.92801	0.000791056	0.107232	267.608
410.0000	1.84676	0.00078484	0.105919	267.456
409.5000	1.91263	0.000785675	0.104672	267.322
409.0000	1.74995	0.000770097	0.1034	267.203
408.5000	1.67462	0.000770494	0.101774	267.081
408.0000	1.51422	0.000776036	0.100098	266.969
407.5000	1.66129	0.000777901	0.0982748	266.838
407.0000	1.67233	0.00076622	0.0967829	266.709
406.5000	1.49482	0.000756299	0.095473	266.581
406.0000	1.48896	0.000766156	0.0939589	266.432
405.5000	1.53072	0.00076324	0.092359	266.282
405.0000	1.50348	0.000764351	0.0907037	266.104
404.5000	1.48943	0.000762365	0.089247	265.924
404.0000	1.23256	0.000763158	0.0880468	265.712
403.5000	1.13141	0.000763512	0.0869155	265.483
403.0000	1.04959	0.000767541	0.0862367	265.25
402.5000	1.17344	0.00077544	0.0851729	264.999
402.0000	1.0916	0.000781682	0.0845678	264.761
401.5000	1.28037	0.000785815	0.0840934	264.504
401.0000	1.15804	0.000777155	0.0835394	264.278
400.5000	1.19991	0.000788415	0.0830594	264.071
400.0000	1.11637	0.000786899	0.0825568	263.894
399.5000	1.05081	0.000786181	0.0826897	263.736
399.0000	0.774101	0.000796239	0.0826961	263.601
398.5000	0.834154	0.0008058	0.0824243	263.475
398.0000	0.840618	0.000802543	0.0820897	263.368
397.5000	0.766184	0.000801552	0.0818037	263.291
397.0000	0.757285	0.000806864	0.0820351	263.253
396.5000	0.791092	0.00080057	0.0820872	263.248
396.0000	0.655179	0.000785945	0.0822394	263.269
395.5000	0.645616	0.000774371	0.0818249	263.297
395.0000	0.520295	0.000776502	0.0815512	263.354
394.5000	0.765961	0.000776513	0.081553	263.447
394.0000	0.624464	0.000770423	0.0815241	263.561
393.5000	0.543901	0.000769145	0.0812319	263.693
393.0000	0.350323	0.000764062	0.0809444	263.851
392.5000	0.389364	0.000775996	0.0806705	263.987
392.0000	0.403942	0.000791554	0.0805829	264.104
391.5000	0.411213	0.000792298	0.0805725	264.194
391.0000	0.438884	0.000785705	0.0805659	264.286
390.5000	0.485455	0.00078884	0.0802812	264.365
390.0000	0.37905	0.000795947	0.0802107	264.451
389.5000	0.344529	0.000798639	0.0804068	264.524
389.0000	0.316259	0.000796317	0.0807971	264.591
388.5000	0.21551	0.00079378	0.0807671	264.639
388.0000	0.32825	0.000821323	0.0808807	264.705
387.5000	0.291374	0.000830577	0.0812538	264.762
387.0000	0.167611	0.000841644	0.082185	264.824
386.5000	0.195382	0.00084613	0.0828378	264.872
386.0000	0.0361519	0.000849746	0.0835808	264.913
385.5000	-0.0360665	0.000843338	0.0843084	264.947
385.0000	-0.00698904	0.000833523	0.0849772	264.971
384.5000	-0.0850955	0.000833933	0.085783	265.004
384.0000	-0.306776	0.00083748	0.0866693	265.033
383.5000	-0.0758666	0.000841533	0.0874201	265.074
383.0000	0.0589978	0.000840531	0.0880142	265.112
382.5000	0.079169	0.000845423	0.0887412	265.155
382.0000	0.0571519	0.00085465	0.0899552	265.202
381.5000	-0.119883	0.000838674	0.0913284	265.253
381.0000	-0.0837663	0.000862169	0.0925015	265.314
380.5000	-0.14221	0.000854193	0.0935227	265.378
380.0000	-0.163476	0.000862214	0.0946226	265.428
379.5000	-0.25839	0.00086314	0.0957863	265.48
379.0000	-0.212034	0.000865415	0.0964946	265.525
378.5000	-0.136393	0.000864785	0.0970332	265.582
378.0000	-0.214812	0.000871895	0.0975375	265.631
377.5000	-0.0136864	0.000866322	0.0981102	265.672
377.0000	0.166711	0.000890844	0.0985696	265.704
376.5000	0.195839	0.000901125	0.0994506	265.749
376.0000	0.216056	0.000895181	0.1001	265.768
375.5000	0.395482	0.000897094	0.100633	265.794
375.0000	0.250571	0.000890056	0.100989	265.796
374.5000	0.083801	0.000894336	0.101393	265.795
374.0000	-0.0026452	0.000888765	0.101657	265.778
373.5000	-0.0363526	0.000884802	0.101924	265.769
373.0000	0.156171	0.000878416	0.101869	265.753
372.5000	0.148927	0.000880307	0.101923	265.739
372.0000	0.305437	0.000880983	0.102051	265.725
371.5000	0.325763	0.000874283	0.102216	265.722
371.0000	0.321898	0.000866029	0.102502	265.716
370.5000	0.453057	0.000871691	0.103086	265.729
370.0000	0.379499	0.000865599	0.103417	265.735
369.5000	0.377624	0.000856435	0.103831	265.754
369.0000	0.231239	0.000865692	0.104214	265.772
368.5000	0.066933	0.000862963	0.10494	265.814
368.0000	-0.107257	0.000853042	0.105344	265.853
367.5000	-0.159631	0.000851144	0.1059	265.899
367.0000	-0.140282	0.000846926	0.106714	265.953
366.5000	-0.0556148	0.000844943	0.107354	266.02
366.0000	-0.239154	0.000838769	0.108067	266.104
365.5000	-0.237995	0.000857163	0.108696	266.182
365.0000	-0.128941	0.000855409	0.109091	266.251
364.5000	-0.227534	0.000861183	0.109742	266.323
364.0000	-0.238649	0.000868047	0.110349	266.408
363.5000	-0.398649	0.000869853	0.111239	266.49
363.0000	-0.3906	0.000862687	0.112193	266.582
362.5000	-0.466435	0.000855587	0.112893	266.664
362.0000	-0.41915	0.000861668	0.113577	266.748
361.5000	-0.383663	0.000873764	0.114442	266.831
361.0000	-0.406964	0.000873669	0.115263	266.913
360.5000	-0.418202	0.000873941	0.115739	266.985
360.0000	-0.424625	0.000873308	0.116328	267.058
359.5000	-0.439565	0.000874461	0.116941	267.14
359.0000	-0.431883	0.000864977	0.117151	267.207
358.5000	-0.53198	0.000871242	0.117163	267.267
358.0000	-0.560921	0.000872337	0.117222	267.328
357.5000	-0.556573	0.000882381	0.117323	267.393
357.0000	-0.59061	0.000865093	0.117754	267.466
356.5000	-0.545133	0.000874844	0.118489	267.537
356.0000	-0.551675	0.000855841	0.118824	267.604
355.5000	-0.508389	0.000845411	0.118985	267.659
355.0000	-0.42817	0.00083866	0.119043	267.715
354.5000	-0.448308	0.000839317	0.119116	267.773
354.0000	-0.407985	0.000841271	0.119268	267.829
353.5000	-0.463372	0.000837431	0.119452	267.888
353.0000	-0.543334	0.000835738	0.119595	267.95
352.5000	-0.489988	0.000830324	0.119857	268.02
352.0000	-0.344499	0.000826431	0.120097	268.087
351.5000	-0.223825	0.00083239	0.120271	268.145
351.0000	-0.15334	0.000837313	0.120675	268.195
350.5000	-0.0588936	0.000829741	0.121416	268.263
350.0000	-0.0260557	0.00083727	0.1223	268.341
349.5000	-0.0561101	0.000828195	0.123219	268.414
349.0000	-0.0380363	0.00081473	0.124139	268.479
348.5000	-0.037367	0.000814618	0.12519	268.549
348.0000	-0.116466	0.000817298	0.125838	268.607
347.5000	-0.154631	0.000823915	0.126705	268.658
347.0000	-0.195675	0.000833515	0.127777	268.724
346.5000	-0.39922	0.000832668	0.12847	268.775
346.0000	-0.34852	0.000823599	0.129099	268.826
345.5000	-0.324282	0.00082352	0.130057	268.891
345.0000	-0.453086	0.000810456	0.131038	268.956
344.5000	-0.357812	0.000804766	0.131925	269.011
344.0000	-0.451522	0.000789348	0.13301	269.067
343.5000	-0.389271	0.000771172	0.133617	269.105
343.0000	-0.524422	0.000755411	0.134267	269.156
342.5000	-0.505916	0.000764119	0.134868	269.215
342.0000	-0.511084	0.000768248	0.135409	269.272
341.5000	-0.613312	0.000751814	0.136051	269.329
341.0000	-0.4039	0.000762883	0.136857	269.382
340.5000	-0.3921	0.000760661	0.137317	269.43
340.0000	-0.496559	0.000755759	0.137856	269.487
339.5000	-0.460634	0.000741725	0.138327	269.561
339.0000	-0.514859	0.000722095	0.139053	269.632
338.5000	-0.467398	0.0007107	0.139847	269.704
338.0000	-0.450758	0.000715509	0.140718	269.787
337.5000	-0.457504	0.000717499	0.141382	269.859
337.0000	-0.290732	0.00071513	0.142011	269.938
336.5000	-0.194999	0.000726891	0.142716	270.004
336.0000	-0.0353361	0.000712442	0.143477	270.088
335.5000	-0.0228559	0.000727487	0.144191	270.166
335.0000	-0.248892	0.000721574	0.144927	270.246
334.5000	-0.228619	0.000716769	0.145679	270.336
334.0000	-0.179539	0.000686386	0.146509	270.422
333.5000	-0.0662166	0.000671261	0.14771	270.51
333.0000	-0.163272	0.00066831	0.1487	270.609
332.5000	-0.232755	0.00065685	0.14933	270.703
332.0000	-0.271624	0.000654238	0.150133	270.806
331.5000	-0.0815267	0.000651075	0.151021	270.897
331.0000	-0.0766546	0.000647224	0.152076	270.999
330.5000	-0.21683	0.000638561	0.152905	271.101
330.0000	-0.301928	0.000639465	0.153848	271.204
329.5000	-0.259274	0.000630349	0.154948	271.323
329.0000	-0.270977	0.000600593	0.155849	271.433
328.5000	-0.368814	0.000596015	0.156847	271.541
328.0000	-0.376379	0.000580304	0.157656	271.641
327.5000	-0.512918	0.000566837	0.158617	271.738
327.0000	-0.521614	0.000552362	0.159735	271.825
326.5000	-0.336664	0.00054874	0.161365	271.955
326.0000	-0.408496	0.000532637	0.16284	272.068
325.5000	-0.471006	0.000528286	0.164248	272.196
325.0000	-0.546365	0.000514016	0.165352	272.326
324.5000	-0.267721	0.000497813	0.166612	272.457
324.0000	-0.281388	0.000479671	0.16828	272.608
323.5000	-0.411542	0.000469045	0.170011	272.754
323.0000	-0.502438	0.000466912	0.171572	272.909
322.5000	-0.618959	0.000453707	0.173024	273.059
322.0000	-0.595636	0.000454609	0.174399	273.213
321.5000	-0.468589	0.000436192	0.176216	273.386
321.0000	-0.471505	0.000410922	0.177979	273.551
320.5000	-0.31999	0.00041329	0.179805	273.715
320.0000	-0.368903	0.000409793	0.181294	273.864
319.5000	-0.343438	0.000402507	0.183003	274.032
319.0000	-0.375153	0.000402701	0.18464	274.218
318.5000	-0.344955	0.000402547	0.186343	274.418
318.0000	-0.318672	0.000389737	0.187774	274.59
317.5000	-0.0686257	0.000388535	0.189404	274.76
317.0000	-0.114235	0.000377228	0.191139	274.913
316.5000	-0.188438	0.000374283	0.192874	275.053
316.0000	-0.196568	0.000358127	0.19477	275.211
315.5000	-0.0134255	0.00036673	0.196377	275.375
315.0000	0.19534	0.000345002	0.198197	275.569
314.5000	0.14553	0.000333092	0.199933	275.756
314.0000	0.450045	0.000340219	0.201762	275.942
313.5000	0.507903	0.000340041	0.203644	276.129
313.0000	0.768561	0.000340643	0.205595	276.333
312.5000	0.756557	0.000333839	0.207238	276.52
312.0000	0.794008	0.000314758	0.209308	276.728
311.5000	0.905714	0.000304734	0.211343	276.944
311.0000	0.9466	0.000299911	0.213713	277.169
310.5000	0.99455	0.000291723	0.215931	277.419
310.0000	1.05781	0.000287201	0.21819	277.653
309.5000	1.0702	0.000278542	0.220726	277.909
309.0000	1.08929	0.000262283	0.223599	278.202
308.5000	1.33889	0.000262775	0.226421	278.52
308.0000	1.44878	0.000265171	0.229205	278.828
307.5000	1.53255	0.000244772	0.232575	279.185
307.0000	1.66296	0.000234471	0.235894	279.517
306.5000	1.84274	0.000225225	0.239685	279.894
306.0000	1.98736	0.000206231	0.24356	280.265
305.5000	1.98267	0.00018889	0.247713	280.69
305.0000	2.24055	0.000179616	0.251928	281.109
304.5000	2.20218	0.000173001	0.256774	281.573
304.0000	2.39815	0.000172277	0.262254	282.088
303.5000	2.35321	0.000160748	0.267832	282.613
303.0000	2.5291	0.000151802	0.273904	283.206
302.5000	2.72469	0.000141583	0.280192	283.826
302.0000	2.87015	0.000142267	0.287111	284.486
301.5000	2.98017	0.000117722	0.294215	285.161
301.0000	3.29624	0.00012139	0.301354	285.86
300.5000	3.34785	0.000113864	0.307914	286.507
300.0000	3.50309	0.000100134	0.316126	287.284
299.5000	3.52587	8.76049E-005	0.323958	288.037
299.0000	3.49772	9.13713E-005	0.331649	288.793
298.5000	3.51769	9.21254E-005	0.339478	289.575
298.0000	3.75828	8.36985E-005	0.346939	290.313
297.5000	3.86042	6.90198E-005	0.35485	291.089
297.0000	3.98144	6.07906E-005	0.362316	291.781
296.5000	3.97334	6.35851E-005	0.369368	292.453
296.0000	4.15716	7.06156E-005	0.376154	293.107
295.5000	4.34928	7.97998E-005	0.382943	293.735
295.0000	4.44378	8.34065E-005	0.389256	294.302
294.5000	4.5043	9.19781E-005	0.39543	294.869
294.0000	4.52214	0.000100886	0.401314	295.451
293.5000	4.56082	0.000110216	0.40591	295.925
293.0000	4.35905	0.000129014	0.410789	296.42
292.5000	4.34273	0.000128118	0.415456	296.916
292.0000	4.45159	0.000153417	0.419487	297.363
291.5000	4.32754	0.000149893	0.423369	297.784
291.0000	4.54431	0.000167765	0.427106	298.189
290.5000	4.53995	0.000152057	0.431024	298.606
290.0000	4.36468	0.000173542	0.434864	298.996
289.5000	4.08006	0.000191259	0.438096	299.357
289.0000	3.89345	0.00021991	0.441034	299.696
288.5000	3.9855	0.000235783	0.444173	300.067
288.0000	3.84997	0.000256992	0.447326	300.443
287.5000	3.71881	0.000265848	0.450691	300.851
287.0000	3.41981	0.00028746	0.453861	301.281
286.5000	3.40368	0.000311911	0.456751	301.704
286.0000	3.40621	0.000338218	0.459555	302.083
285.5000	3.5371	0.000352499	0.462718	302.447
285.0000	3.5966	0.000375375	0.466224	302.85
284.5000	3.70618	0.000402971	0.469343	303.216
284.0000	3.88209	0.000414139	0.472731	303.609
283.5000	3.76877	0.000436487	0.4764	304.017
283.0000	3.66287	0.000458801	0.47994	304.416
282.5000	3.71564	0.000502581	0.483718	304.838
282.0000	3.99723	0.000551493	0.487404	305.283
281.5000	3.98988	0.000575774	0.491016	305.724
281.0000	4.16441	0.000598745	0.495025	306.185
280.5000	4.42214	0.000630826	0.499398	306.705
280.0000	4.51688	0.000660614	0.504109	307.257
279.5000	4.58961	0.000682464	0.50904	307.841
279.0000	4.65351	0.000703406	0.513882	308.425
278.5000	4.81401	0.000716985	0.51948	309.08
278.0000	4.63973	0.000726425	0.52601	309.79
277.5000	4.48756	0.000746662	0.532345	310.479
277.0000	4.63722	0.00078312	0.539234	311.255
276.5000	4.84303	0.000834722	0.546536	312.088
276.0000	4.74841	0.000854627	0.553713	312.895
275.5000	4.67203	0.000886504	0.562387	313.837
275.0000	4.90053	0.000921259	0.571376	314.819
274.5000	5.2323	0.000932182	0.580911	315.881
274.0000	5.31563	0.000941282	0.591364	317.071
273.5000	5.39897	0.000961126	0.60173	318.215
273.0000	5.51822	0.000997105	0.61345	319.502
272.5000	5.75165	0.001041	0.625886	320.876
272.0000	5.9194	0.00105572	0.638781	322.319
271.5000	6.33942	0.00108903	0.653093	323.923
271.0000	6.95833	0.00115416	0.667948	325.554
270.5000	7.34983	0.00118589	0.683831	327.283
270.0000	7.80313	0.00123434	0.700257	329.111
269.5000	8.54193	0.0012683	0.717359	331.055
269.0000	9.13577	0.00131012	0.734601	333.006
268.5000	9.4452	0.00133218	0.753994	335.191
268.0000	9.82716	0.00134502	0.774531	337.501
267.5000	10.1737	0.00139011	0.796037	339.938
267.0000	10.7059	0.00143682	0.819483	342.642
266.5000	11.0332	0.00148192	0.843831	345.485
266.0000	11.6834	0.00153308	0.867139	348.169
265.5000	12.0485	0.00158076	0.892667	351.095
265.0000	12.3783	0.00160082	0.919574	354.247
264.5000	13.1192	0.00161882	0.945456	357.327
264.0000	13.5636	0.00163764	0.971482	360.447
263.5000	13.2921	0.00165094	0.999114	363.755
263.0000	12.9383	0.00164215	1.02387	366.747
262.5000	13.1127	0.00163277	1.05073	370.064
262.0000	12.8196	0.00164059	1.07573	373.223
261.5000	12.9559	0.00166294	1.10079	376.382
261.0000	12.9641	0.00166932	1.12467	379.367
260.5000	12.8423	0.00166278	1.1493	382.491
260.0000	12.9117	0.00166503	1.1733	385.584
259.5000	13.1293	0.00167962	1.19702	388.68
259.0000	12.7458	0.00166046	1.22018	391.762
258.5000	13.5951	0.00167369	1.24356	394.854
258.0000	12.9682	0.00166121	1.26673	397.941
257.5000	13.4519	0.00167428	1.28853	400.867
257.0000	13.7553	0.0016878	1.31153	403.979
256.5000	13.1763	0.00165802	1.33352	406.963
256.0000	12.5442	0.00165334	1.35685	410.129
255.5000	12.94	0.00163134	1.38055	413.347
255.0000	13.4164	0.00163804	1.40445	416.624
254.5000	13.3455	0.00163758	1.42722	419.767
254.0000	12.9708	0.00166815	1.45006	422.933
253.5000	12.7966	0.00164579	1.47578	426.453
253.0000	12.1778	0.00159269	1.49872	429.643
252.5000	11.4901	0.00158889	1.53182	434.342
252.0000	11.4726	0.00158156	1.55844	438.139
251.5000	10.8893	0.00155541	1.58105	441.371
251.0000	10.0766	0.00149569	1.60338	444.537
250.5000	9.14059	0.00142012	1.62478	447.625
250.0000	8.9073	0.00137031	1.64412	450.459
249.5000	8.68707	0.00133606	1.66256	453.193
249.0000	7.75289	0.0012505	1.68135	455.991
248.5000	7.87996	0.00122577	1.69862	458.552
248.0000	7.38184	0.00117735	1.71602	461.161
247.5000	7.53166	0.00111737	1.73173	463.559
247.0000	5.80584	0.00106568	1.74768	466.029
246.5000	4.87146	0.00102341	1.76355	468.471
246.0000	4.79243	0.000871047	1.77935	470.89
245.5000	3.9669	0.000776203	1.79525	473.404
245.0000	3.27177	0.000677178	1.8114	475.963
244.5000	3.29503	0.000575305	1.82787	478.569
244.0000	1.84062	0.000534147	1.84457	481.246
243.5000	1.88786	0.000358413	1.86106	483.92
243.0000	2.45605	0.000368035	1.87814	486.73
242.5000	2.22161	0.000286683	1.89799	490.019
242.0000	1.64944	0.000238719	1.9162	493.046
241.5000	0.128775	0.000146261	1.93782	496.645
241.0000	0.324291	-3.81359E-005	1.95883	500.153
240.5000	-0.488481	-0.000146482	1.98339	504.338
240.0000	-0.908602	-0.000287955	2.00754	508.457
239.5000	-0.345503	-0.000313303	2.03796	513.659
239.0000	0.328493	-0.000431832	2.06662	518.55
238.5000	1.25745	-0.000571607	2.09907	524.124
238.0000	0.851174	-0.000626941	2.1354	530.462
237.5000	2.13911	-0.000625181	2.17051	536.653
237.0000	1.70036	-0.000673568	2.20995	543.657
236.5000	2.95935	-0.00060505	2.25204	551.194
236.0000	3.96061	-0.000687079	2.29451	558.851
235.5000	4.5549	-0.000720032	2.34604	568.291
235.0000	5.73352	-0.000749028	2.38274	575.09
234.5000	5.55444	-0.00109302	2.42323	582.649
234.0000	6.34794	-0.00129701	2.46783	591.044
233.5000	8.48297	-0.00133203	2.51956	600.861
233.0000	8.87387	-0.00144666	2.57555	611.641
232.5000	10.9936	-0.0011299	2.63056	622.427
232.0000	11.5421	-0.000980457	2.69629	635.552
231.5000	12.5163	-0.000950262	2.75111	646.718
231.0000	9.73558	-0.00101116	2.81285	659.509
230.5000	10.4556	-0.000829646	2.87491	672.667
230.0000	10.3927	-0.000709708	2.93367	685.431
229.5000	9.47755	-0.000906506	2.99494	698.994
229.0000	8.19309	-0.000907469	3.055	712.602
228.5000	8.29831	-0.000899314	3.11346	726.109
228.0000	6.99899	-0.000973439	3.16693	738.753
227.5000	3.34326	-0.00103197	3.22035	751.797
227.0000	5.65637	-0.000983117	3.27061	764.41
226.5000	1.79016	-0.00091931	3.32	777.152
226.0000	0.261646	-0.000664018	3.36128	788.176
225.5000	-2.89841	-0.00059869	3.40116	799.208
225.0000	-5.01031	-0.000516036	3.43643	809.499
224.5000	-2.55594	-0.000512441	3.46761	819.066
224.0000	-5.15555	-0.000909761	3.49468	827.8
223.5000	-4.89732	-0.000922832	3.51772	835.644
223.0000	-3.69307	-0.00116051	3.53662	842.578
222.5000	-0.747907	-0.0012821	3.55338	849.716
222.0000	-6.17836	-0.00164939	3.56377	855.173
221.5000	-4.78969	-0.00149582	3.56996	859.857
221.0000	-3.59373	-0.00162026	3.57196	863.121
220.5000	-3.96747	-0.00174594	3.57127	865.8
220.0000	-3.6453	-0.00156026	3.56783	868.011

##### Extended Information
[Comments]
Sample name	JS187+JS190_5E-5_H2O_20-80
Comment
User
Division
Company	Labo systeme complexes hors equilibre

[Detailed Information]
Creation date	1/23/2024 12:34 PM

Data array type	Linear data array * 4
Horizontal axis	Wavelength [nm]
Vertical axis(1)	CD [mdeg]
Vertical axis(2)	LD [dOD]
Vertical axis(3)	Abs
Vertical axis(4)	HT [V]
Start	700 nm
End	220 nm
Data interval	0.5 nm
Data points	961     

[Measurement Information]
Instrument name	CD Jasco
Model name	J-1500
Serial No.	A005261638

Detector	PM-539
Detector S/N	A0052PM539
  Lock-in amp.	X mode
  HT volt	Auto

Detector	EXPML-535
Detector S/N	A0001
  Lock-in amp.	X mode
  HT volt	Auto

Measurement date	1/23/2024 12:34 PM

Overload detect	1
Photometric mode	CD, LD, Abs, HT
Measure range	700 - 220 nm
Data pitch	0.5 nm
CD scale	200 mdeg/1.0 dOD
FL scale	200 mdeg/1.0 dOD
D.I.T.	1 sec
Bandwidth	1.00 nm
Start mode	Immediately
Scanning speed	500 nm/min
Baseline correction	Baseline
Shutter control	Auto


