TITLE	JS187+JS190_5E-5_H2O_60-40
DATA TYPE	
ORIGIN	JASCO
OWNER	
DATE	24/01/23
TIME	10:55:10
SPECTROMETER/DATA SYSTEM	
LOCALE	1033
RESOLUTION	
DELTAX	-0.5
XUNITS	NANOMETERS
YUNITS	CD [mdeg]
Y2UNITS	LD [dOD]
Y3UNITS	ABSORBANCE
Y4UNITS	HT [V]
FIRSTX	  700.0000
LASTX	  220.0000
NPOINTS	     961
FIRSTY	     1.13406
MAXY	     4.81482
MINY	   -17.75164
XYDATA
700.0000	1.13406	-8.42845E-005	-0.0601939	298.632
699.5000	0.931305	-0.000101501	-0.0612967	298.326
699.0000	0.871531	-0.000101345	-0.062602	297.957
698.5000	1.0328	-8.51503E-005	-0.0634344	297.549
698.0000	0.995146	-9.98612E-005	-0.0647209	297.099
697.5000	0.932068	-8.76494E-005	-0.0664503	296.634
697.0000	0.645433	-6.67883E-005	-0.0684921	296.121
696.5000	0.635507	-5.70481E-005	-0.0696937	295.605
696.0000	0.608598	-4.74042E-005	-0.0700249	295.056
695.5000	0.6914	-5.8521E-005	-0.0698903	294.551
695.0000	0.77135	-6.92517E-005	-0.069175	294.102
694.5000	0.476231	-8.37877E-005	-0.0684206	293.677
694.0000	0.490351	-7.10176E-005	-0.0667007	293.266
693.5000	0.503909	-5.50917E-005	-0.0645914	292.896
693.0000	0.58353	-4.97166E-005	-0.061636	292.602
692.5000	0.363405	-5.18997E-005	-0.0586835	292.332
692.0000	0.362958	-3.12208E-005	-0.0558332	292.091
691.5000	0.479618	-3.40625E-005	-0.0527122	291.886
691.0000	0.541464	-3.38087E-005	-0.0497426	291.684
690.5000	0.285359	-3.13505E-005	-0.0477496	291.495
690.0000	0.277312	-3.62946E-005	-0.0460161	291.33
689.5000	0.165751	-3.73261E-005	-0.0438305	291.228
689.0000	0.186374	-4.56029E-005	-0.0406866	291.199
688.5000	0.427674	-3.89608E-005	-0.0372581	291.275
688.0000	0.28972	-3.27702E-005	-0.0330994	291.444
687.5000	0.302618	-2.52149E-005	-0.0287939	291.676
687.0000	0.250694	-2.9635E-006	-0.0253306	291.907
686.5000	0.114324	-5.11238E-006	-0.0226864	292.15
686.0000	0.00442085	-2.38632E-005	-0.0215844	292.382
685.5000	0.141674	-2.94375E-005	-0.0214269	292.629
685.0000	-0.0664559	-4.97007E-005	-0.0218451	292.856
684.5000	-0.226358	-7.46235E-005	-0.022861	293.071
684.0000	0.100907	-8.46376E-005	-0.0242857	293.285
683.5000	0.0202066	-8.48817E-005	-0.0252721	293.502
683.0000	0.0323062	-6.63619E-005	-0.0261693	293.74
682.5000	-0.128407	-6.91997E-005	-0.0265137	293.985
682.0000	0.392134	-7.09089E-005	-0.0267408	294.279
681.5000	0.496065	-7.54901E-005	-0.0265149	294.568
681.0000	0.630885	-6.43414E-005	-0.0267307	294.828
680.5000	0.912277	-6.55076E-005	-0.0273456	295.027
680.0000	0.811954	-6.68283E-005	-0.0295458	295.147
679.5000	0.866112	-6.87726E-005	-0.0323748	295.202
679.0000	0.819903	-8.13616E-005	-0.0361128	295.217
678.5000	1.01479	-8.43647E-005	-0.038704	295.206
678.0000	1.16574	-5.7559E-005	-0.0408456	295.198
677.5000	1.34102	-5.64102E-005	-0.0421659	295.176
677.0000	1.17725	-2.57122E-005	-0.0425884	295.168
676.5000	1.53957	-4.31863E-006	-0.0423384	295.152
676.0000	1.37903	2.18152E-007	-0.0420413	295.138
675.5000	1.26157	-3.92922E-006	-0.0415859	295.137
675.0000	1.221	-1.75649E-005	-0.0410139	295.134
674.5000	1.06676	-3.58415E-005	-0.0399518	295.146
674.0000	1.10261	-2.29044E-005	-0.03877	295.171
673.5000	1.04684	-2.34352E-005	-0.0375443	295.202
673.0000	0.777752	-2.02241E-005	-0.0371948	295.243
672.5000	0.609469	-2.94256E-005	-0.0369228	295.288
672.0000	0.714841	-1.5143E-005	-0.0363064	295.342
671.5000	0.684672	-5.2712E-006	-0.0352739	295.392
671.0000	0.259361	-1.65653E-005	-0.0341898	295.45
670.5000	0.368859	-2.90238E-007	-0.0327827	295.521
670.0000	0.376613	3.77974E-006	-0.031556	295.598
669.5000	0.447967	1.87682E-005	-0.0309068	295.674
669.0000	0.49972	1.28677E-005	-0.0302239	295.751
668.5000	0.685648	-1.00537E-005	-0.0296279	295.824
668.0000	0.478996	-3.45064E-005	-0.0291019	295.922
667.5000	0.631884	-2.42812E-005	-0.0286794	296.027
667.0000	0.59186	-1.55161E-005	-0.0284812	296.137
666.5000	0.740261	-5.55202E-006	-0.028148	296.26
666.0000	0.532446	1.32603E-005	-0.0285548	296.387
665.5000	0.446404	-4.04826E-006	-0.0285058	296.519
665.0000	0.465836	-1.18771E-005	-0.0276876	296.647
664.5000	0.628247	-7.31123E-006	-0.0267094	296.761
664.0000	0.38763	-2.4627E-005	-0.0265068	296.867
663.5000	0.397888	-3.24952E-005	-0.0272713	296.974
663.0000	0.727038	-3.53242E-005	-0.0274263	297.06
662.5000	0.810267	-2.79209E-005	-0.0276659	297.142
662.0000	0.84914	-4.58687E-005	-0.0280081	297.209
661.5000	0.586216	-7.01402E-005	-0.0278649	297.261
661.0000	0.487702	-7.57009E-005	-0.0280646	297.306
660.5000	0.49968	-5.34305E-005	-0.0284754	297.34
660.0000	0.709229	-4.70111E-005	-0.028734	297.353
659.5000	0.473385	-2.9828E-005	-0.02939	297.361
659.0000	0.275899	-4.50717E-005	-0.029795	297.357
658.5000	0.283578	-4.60959E-005	-0.0300936	297.329
658.0000	0.201606	-5.97412E-005	-0.0301393	297.274
657.5000	0.441962	-6.02712E-005	-0.0308961	297.186
657.0000	0.336275	-6.69619E-005	-0.0307055	297.086
656.5000	0.441391	-6.15895E-005	-0.031674	296.959
656.0000	0.548817	-5.4323E-005	-0.0323689	296.835
655.5000	0.514904	-5.94199E-005	-0.0316606	296.692
655.0000	0.459626	-5.86494E-005	-0.0316246	296.538
654.5000	0.414628	-4.55868E-005	-0.0319153	296.401
654.0000	0.228473	-5.28267E-005	-0.0315192	296.253
653.5000	0.202273	-4.6262E-005	-0.0302216	296.131
653.0000	0.217566	-4.24373E-005	-0.0284791	296.031
652.5000	0.218077	-3.0503E-005	-0.026719	295.959
652.0000	0.63596	-1.90616E-005	-0.0246148	295.928
651.5000	0.47427	-2.62509E-005	-0.0221587	295.913
651.0000	0.660614	-5.11723E-005	-0.0191704	295.931
650.5000	0.664608	-3.23017E-005	-0.0169002	295.978
650.0000	0.930228	-3.79008E-005	-0.0144131	296.03
649.5000	0.992295	-1.6852E-005	-0.0122753	296.124
649.0000	0.774436	-1.25249E-005	-0.00991313	296.238
648.5000	0.879656	-1.51389E-005	-0.00834424	296.386
648.0000	0.928583	-9.12304E-006	-0.00639199	296.562
647.5000	0.891494	-2.08284E-006	-0.00478497	296.73
647.0000	0.758979	-2.0729E-006	-0.00360346	296.931
646.5000	0.860001	-5.40682E-007	-0.0026692	297.129
646.0000	0.800534	-2.07507E-005	-0.000928363	297.321
645.5000	0.789926	7.88182E-006	-0.000210557	297.49
645.0000	0.838021	3.32045E-006	-0.000679621	297.641
644.5000	1.00178	1.0952E-005	-0.000939052	297.766
644.0000	0.934104	4.05727E-006	-0.00107291	297.866
643.5000	0.77748	-3.86574E-006	-0.00170354	297.931
643.0000	0.870712	1.10367E-005	-0.00235078	297.965
642.5000	1.04382	1.29882E-005	-0.0029521	297.976
642.0000	1.13426	3.37212E-005	-0.00340155	297.965
641.5000	1.16333	3.32774E-005	-0.00376844	297.954
641.0000	1.09312	3.55243E-005	-0.00389311	297.919
640.5000	0.976829	4.881E-005	-0.0035086	297.882
640.0000	0.76618	6.37886E-005	-0.00296322	297.826
639.5000	0.789124	5.01774E-005	-0.00209404	297.76
639.0000	0.811962	6.64254E-005	-0.00147654	297.685
638.5000	0.843579	4.56982E-005	-0.000383652	297.602
638.0000	0.952301	5.86612E-005	0.000185768	297.523
637.5000	1.05515	5.97377E-005	0.00050564	297.438
637.0000	1.02967	5.78432E-005	0.00169359	297.352
636.5000	1.05676	4.86805E-005	0.00274272	297.28
636.0000	1.0546	3.20756E-005	0.0030258	297.203
635.5000	1.21838	5.31398E-005	0.00362503	297.147
635.0000	1.09428	6.22011E-005	0.00469805	297.1
634.5000	0.991123	5.38431E-005	0.00561359	297.053
634.0000	0.609633	5.66776E-005	0.0064291	297.007
633.5000	0.609037	4.56128E-005	0.00675755	296.954
633.0000	0.677107	4.81278E-005	0.00771267	296.913
632.5000	0.693839	4.33734E-005	0.00808166	296.878
632.0000	1.00001	4.57101E-005	0.00822148	296.821
631.5000	1.0421	5.50559E-005	0.00876379	296.776
631.0000	1.15833	7.23741E-005	0.00926295	296.731
630.5000	1.10272	6.34335E-005	0.00968956	296.68
630.0000	0.99074	8.62031E-005	0.0102246	296.632
629.5000	1.09129	8.64526E-005	0.0108294	296.578
629.0000	1.19186	0.000110782	0.0112505	296.529
628.5000	1.19294	0.000110921	0.0114209	296.475
628.0000	0.996581	0.000129844	0.0118624	296.421
627.5000	0.878024	0.000137609	0.0125461	296.357
627.0000	0.65929	0.00011471	0.0126703	296.289
626.5000	0.753851	0.000111325	0.0126034	296.232
626.0000	0.656895	0.00011144	0.0126839	296.181
625.5000	0.768837	0.00011846	0.0135362	296.144
625.0000	0.689772	0.000112147	0.0144182	296.103
624.5000	0.808031	0.000112943	0.0154011	296.075
624.0000	0.679119	0.000121221	0.0163312	296.061
623.5000	0.625409	0.000129151	0.0173972	296.066
623.0000	0.565684	0.000132559	0.018301	296.07
622.5000	0.540297	0.000135217	0.0193334	296.084
622.0000	0.434275	0.000138702	0.0202004	296.118
621.5000	0.751912	0.00013668	0.0209915	296.152
621.0000	0.658006	0.000134393	0.0219642	296.207
620.5000	0.560418	0.000124785	0.0226523	296.272
620.0000	0.683585	0.000126117	0.0233338	296.358
619.5000	0.88461	0.000130497	0.024198	296.452
619.0000	0.886929	0.000121043	0.0256341	296.574
618.5000	1.05461	0.000132782	0.0275216	296.714
618.0000	0.817151	0.000146135	0.0293334	296.848
617.5000	1.11774	0.000145708	0.0302112	296.997
617.0000	0.920768	0.000148477	0.0308273	297.153
616.5000	0.880133	0.000129262	0.0313295	297.293
616.0000	0.989056	0.000137738	0.0321925	297.425
615.5000	1.02837	0.000127414	0.0326639	297.558
615.0000	1.19716	0.000114944	0.0329625	297.682
614.5000	1.29116	0.000103661	0.0332624	297.824
614.0000	1.09963	9.82614E-005	0.0335427	297.96
613.5000	1.1403	9.79075E-005	0.034083	298.1
613.0000	0.94794	9.6968E-005	0.03451	298.244
612.5000	0.991028	0.000111822	0.0349801	298.383
612.0000	1.08164	0.000123676	0.0355536	298.521
611.5000	1.01669	0.00011978	0.0363646	298.651
611.0000	0.733866	0.000108774	0.0367234	298.787
610.5000	0.796734	0.000104722	0.0368335	298.908
610.0000	0.878307	9.78193E-005	0.0367395	299.015
609.5000	0.769031	9.68536E-005	0.0373212	299.126
609.0000	0.637588	9.91176E-005	0.037842	299.228
608.5000	0.557578	0.000102865	0.0387507	299.331
608.0000	0.625443	0.000120006	0.0392296	299.424
607.5000	0.615162	0.000110163	0.0393505	299.522
607.0000	0.5411	0.000101134	0.0398872	299.625
606.5000	0.484862	0.000109831	0.0404439	299.716
606.0000	0.540984	0.00013936	0.0416785	299.806
605.5000	0.613227	0.000167672	0.0426204	299.897
605.0000	0.643903	0.000176382	0.0439914	299.994
604.5000	0.861567	0.000188331	0.0450016	300.079
604.0000	0.553012	0.000177314	0.0461973	300.155
603.5000	0.405614	0.00016404	0.0476114	300.234
603.0000	0.566449	0.000167826	0.0484541	300.299
602.5000	0.735281	0.000167033	0.0498383	300.37
602.0000	1.04534	0.000172452	0.0514381	300.444
601.5000	1.08099	0.000171308	0.0529239	300.52
601.0000	1.08934	0.000165889	0.0543596	300.59
600.5000	1.30107	0.000189018	0.056395	300.665
600.0000	1.18178	0.000185469	0.0579566	300.719
599.5000	0.932998	0.000184353	0.0605013	300.782
599.0000	0.938797	0.000200998	0.0625969	300.836
598.5000	1.09267	0.000199075	0.0651594	300.876
598.0000	1.07272	0.000197475	0.0674197	300.928
597.5000	1.03603	0.000179669	0.0693854	300.969
597.0000	0.986717	0.00017025	0.0717496	301.02
596.5000	0.975911	0.000164457	0.0740619	301.041
596.0000	1.06741	0.000174145	0.0765692	301.075
595.5000	0.937056	0.000169226	0.0789206	301.11
595.0000	0.89937	0.000179047	0.081594	301.137
594.5000	0.88633	0.000184483	0.0844338	301.18
594.0000	0.995675	0.000204623	0.0868649	301.235
593.5000	0.845315	0.000217356	0.0898909	301.293
593.0000	0.804358	0.000226576	0.093218	301.347
592.5000	0.814992	0.000219554	0.0960981	301.425
592.0000	0.858943	0.0002212	0.0990865	301.535
591.5000	0.603776	0.000208507	0.101522	301.621
591.0000	0.814301	0.000215718	0.104635	301.727
590.5000	0.84311	0.000210367	0.107744	301.873
590.0000	0.954583	0.000211569	0.111079	302.032
589.5000	1.08051	0.000214454	0.114643	302.198
589.0000	0.842129	0.000217688	0.118422	302.389
588.5000	0.834996	0.00021978	0.12229	302.613
588.0000	0.753895	0.000214146	0.12648	302.854
587.5000	1.01738	0.000215081	0.130841	303.126
587.0000	1.01121	0.000215276	0.135297	303.444
586.5000	0.950898	0.000221792	0.139579	303.754
586.0000	0.786238	0.000224002	0.144557	304.081
585.5000	1.01201	0.000242151	0.149252	304.433
585.0000	1.31815	0.000245516	0.154022	304.808
584.5000	1.34643	0.00026352	0.158737	305.18
584.0000	1.31459	0.000272416	0.164156	305.595
583.5000	1.31421	0.000284527	0.16992	306.041
583.0000	1.55488	0.00028954	0.176561	306.55
582.5000	1.60132	0.000293082	0.183017	307.082
582.0000	1.29177	0.000304001	0.189672	307.63
581.5000	1.17901	0.000331706	0.196856	308.234
581.0000	1.256	0.000347523	0.204428	308.851
580.5000	1.3757	0.000360871	0.212265	309.501
580.0000	1.34891	0.000364582	0.220053	310.167
579.5000	1.45697	0.000386175	0.227992	310.862
579.0000	1.51602	0.000414956	0.236302	311.584
578.5000	1.63603	0.000430249	0.245332	312.336
578.0000	1.75209	0.000435181	0.254453	313.129
577.5000	1.74341	0.000420384	0.263945	314.017
577.0000	1.56004	0.000435064	0.274186	314.894
576.5000	1.58502	0.000450073	0.285468	315.869
576.0000	1.75467	0.000439088	0.296644	316.843
575.5000	1.6782	0.000448983	0.308629	317.884
575.0000	2.02182	0.000485448	0.319548	318.879
574.5000	2.14105	0.000516213	0.331953	319.992
574.0000	2.4072	0.000528935	0.344366	321.081
573.5000	2.62249	0.000529046	0.357149	322.221
573.0000	2.49272	0.000543102	0.370507	323.469
572.5000	2.59281	0.000526927	0.383219	324.665
572.0000	2.82487	0.000543786	0.397541	326.032
571.5000	2.84655	0.000550955	0.411933	327.388
571.0000	3.17893	0.000569996	0.427815	328.84
570.5000	3.31274	0.000566152	0.4438	330.362
570.0000	3.51394	0.000578676	0.459252	331.848
569.5000	3.54248	0.0006075	0.476137	333.422
569.0000	3.33071	0.000641236	0.493009	334.996
568.5000	3.62077	0.000635837	0.508675	336.519
568.0000	3.67974	0.000645735	0.524907	338.135
567.5000	3.93216	0.000678498	0.541213	339.757
567.0000	3.91255	0.000689995	0.557358	341.329
566.5000	3.52245	0.000663125	0.573231	342.86
566.0000	3.71802	0.000680194	0.589101	344.395
565.5000	3.90982	0.000689129	0.604272	345.899
565.0000	4.04188	0.000684551	0.619318	347.359
564.5000	4.07981	0.000716638	0.63422	348.801
564.0000	4.30176	0.000749547	0.648271	350.129
563.5000	4.29914	0.000762085	0.6614	351.397
563.0000	4.19695	0.000749297	0.674573	352.705
562.5000	4.31124	0.000764145	0.686796	353.892
562.0000	4.20589	0.000769429	0.698489	355.02
561.5000	4.043	0.000771725	0.71095	356.181
561.0000	4.0877	0.000755673	0.722183	357.255
560.5000	4.20994	0.00074919	0.732554	358.25
560.0000	4.16001	0.000774642	0.742419	359.163
559.5000	4.04438	0.000784023	0.751677	359.964
559.0000	4.42946	0.000799944	0.759507	360.637
558.5000	4.45109	0.000804518	0.766077	361.213
558.0000	4.41888	0.000810884	0.771491	361.675
557.5000	4.4814	0.000808158	0.776484	362.055
557.0000	4.21626	0.000816376	0.78084	362.35
556.5000	4.23267	0.000830879	0.784019	362.569
556.0000	4.37612	0.000798089	0.785973	362.709
555.5000	3.89585	0.000768664	0.787532	362.769
555.0000	3.95021	0.000762549	0.788362	362.727
554.5000	3.66751	0.000750059	0.788666	362.585
554.0000	3.83813	0.000764959	0.787639	362.359
553.5000	3.76554	0.000791404	0.786154	362.081
553.0000	3.69313	0.00079669	0.784254	361.769
552.5000	3.39785	0.000804272	0.782546	361.423
552.0000	3.37003	0.000784571	0.7801	360.991
551.5000	3.20962	0.000744217	0.777444	360.55
551.0000	3.28977	0.000718585	0.77395	360.062
550.5000	3.17501	0.000718338	0.770248	359.535
550.0000	3.31575	0.000737677	0.766564	358.981
549.5000	3.0916	0.000746071	0.763155	358.437
549.0000	3.10607	0.000752039	0.759196	357.899
548.5000	3.33755	0.000744437	0.755251	357.375
548.0000	3.01381	0.000733113	0.752065	356.805
547.5000	2.99608	0.000752503	0.749151	356.291
547.0000	2.97009	0.000777946	0.746363	355.769
546.5000	3.13808	0.00079456	0.743574	355.315
546.0000	3.3015	0.00079246	0.740532	354.909
545.5000	3.215	0.000778967	0.738694	354.518
545.0000	3.33685	0.00076163	0.737193	354.213
544.5000	3.59791	0.000724821	0.735932	353.923
544.0000	3.78201	0.000739113	0.734821	353.697
543.5000	3.8268	0.000775885	0.734264	353.517
543.0000	3.90237	0.000792508	0.734333	353.389
542.5000	4.00006	0.000785186	0.735167	353.312
542.0000	3.9433	0.00079666	0.736032	353.274
541.5000	3.86639	0.000794387	0.73742	353.314
541.0000	4.00252	0.000792011	0.738972	353.395
540.5000	3.75472	0.000789077	0.741893	353.546
540.0000	4.0471	0.000796029	0.745196	353.723
539.5000	4.04802	0.000801958	0.748596	353.965
539.0000	4.17962	0.000786414	0.752366	354.285
538.5000	4.43587	0.000770649	0.756916	354.669
538.0000	4.1736	0.000766693	0.762057	355.071
537.5000	3.82179	0.000761805	0.767871	355.559
537.0000	4.1222	0.000745438	0.773941	356.098
536.5000	3.94831	0.000770868	0.780308	356.655
536.0000	4.07732	0.000764121	0.787461	357.278
535.5000	4.39505	0.000764834	0.794793	357.932
535.0000	4.21415	0.000774784	0.802968	358.659
534.5000	3.95699	0.000788418	0.81084	359.368
534.0000	4.27441	0.00079	0.819437	360.161
533.5000	4.02915	0.000771901	0.828055	360.981
533.0000	4.03561	0.000732176	0.836435	361.788
532.5000	4.22652	0.000757006	0.845114	362.636
532.0000	4.1333	0.000728919	0.854579	363.558
531.5000	4.11149	0.000756757	0.864483	364.515
531.0000	3.9302	0.000751696	0.875421	365.522
530.5000	4.26155	0.000756677	0.885606	366.491
530.0000	4.32142	0.000780096	0.896207	367.527
529.5000	4.81482	0.00079239	0.906444	368.525
529.0000	4.73639	0.000802106	0.916281	369.45
528.5000	4.35056	0.000818363	0.925991	370.386
528.0000	4.68589	0.000828604	0.935242	371.277
527.5000	4.32288	0.000816563	0.944999	372.197
527.0000	4.12659	0.000809784	0.955576	373.197
526.5000	4.2024	0.000795794	0.965154	374.125
526.0000	4.41447	0.000791748	0.975298	375.084
525.5000	3.81808	0.000778709	0.985152	376.011
525.0000	3.98652	0.000812682	0.994733	376.913
524.5000	4.07451	0.000815127	1.00367	377.73
524.0000	3.71797	0.000811683	1.01171	378.454
523.5000	3.41082	0.000812869	1.01956	379.193
523.0000	3.54529	0.000817346	1.02699	379.885
522.5000	3.54113	0.000802683	1.03364	380.52
522.0000	3.45596	0.000799057	1.04067	381.168
521.5000	3.02826	0.000782714	1.04758	381.776
521.0000	2.77284	0.000793749	1.05384	382.333
520.5000	2.64835	0.000793926	1.05998	382.878
520.0000	3.1533	0.000790154	1.06531	383.343
519.5000	2.78049	0.000779831	1.07073	383.788
519.0000	2.90983	0.000804943	1.07559	384.197
518.5000	2.79177	0.000822333	1.07975	384.564
518.0000	2.99551	0.00083454	1.08433	384.94
517.5000	2.73562	0.000832951	1.08893	385.309
517.0000	2.72904	0.000814785	1.09341	385.638
516.5000	2.60688	0.000786021	1.09781	385.953
516.0000	2.76398	0.000805729	1.10185	386.252
515.5000	2.51762	0.000777818	1.10534	386.541
515.0000	2.47583	0.000753126	1.10865	386.798
514.5000	2.4602	0.000775172	1.11188	387.06
514.0000	2.43742	0.000797891	1.11483	387.28
513.5000	2.3131	0.000759305	1.11794	387.508
513.0000	2.35181	0.000784133	1.12063	387.73
512.5000	2.42192	0.000837705	1.12383	387.981
512.0000	2.23215	0.00084138	1.12684	388.205
511.5000	2.04163	0.000810558	1.12951	388.431
511.0000	1.88263	0.000820531	1.1323	388.651
510.5000	1.72411	0.000791892	1.13518	388.853
510.0000	1.30316	0.000769526	1.13803	389.056
509.5000	1.13039	0.000804524	1.14055	389.237
509.0000	1.51809	0.000817715	1.14294	389.419
508.5000	1.64523	0.000820572	1.14509	389.561
508.0000	1.30703	0.000834604	1.14758	389.704
507.5000	1.46409	0.000831336	1.15009	389.841
507.0000	0.950037	0.000804718	1.1527	389.984
506.5000	0.741616	0.000797824	1.15528	390.127
506.0000	0.864457	0.0008071	1.1574	390.264
505.5000	0.581887	0.000804104	1.15967	390.419
505.0000	0.590168	0.000795002	1.16193	390.561
504.5000	0.535882	0.000752911	1.1642	390.691
504.0000	0.486531	0.000680358	1.16616	390.79
503.5000	0.910098	0.000668024	1.16786	390.866
503.0000	0.854655	0.000681717	1.16954	390.92
502.5000	0.794195	0.000693393	1.17084	390.953
502.0000	0.441661	0.000680088	1.17216	390.995
501.5000	0.456139	0.000684494	1.17333	390.999
501.0000	0.316365	0.000659407	1.17446	390.984
500.5000	-0.0545006	0.000658357	1.1754	390.918
500.0000	-0.0283935	0.000645726	1.17605	390.799
499.5000	-0.275266	0.000633106	1.1758	390.603
499.0000	-0.689449	0.000627631	1.1751	390.275
498.5000	-0.656202	0.000663676	1.17392	389.802
498.0000	-0.845067	0.000638948	1.17239	389.19
497.5000	-1.46661	0.000605391	1.17106	388.421
497.0000	-1.29693	0.000607323	1.17047	387.632
496.5000	-1.68623	0.000593519	1.17092	386.888
496.0000	-1.55825	0.000630239	1.17289	386.382
495.5000	-2.52628	0.000620805	1.17503	386.038
495.0000	-3.20861	0.000598248	1.1758	385.777
494.5000	-3.3489	0.00056995	1.17549	385.507
494.0000	-3.67546	0.0005395	1.17476	385.239
493.5000	-4.03754	0.000526537	1.17379	384.942
493.0000	-4.49486	0.000486777	1.17284	384.661
492.5000	-4.82988	0.000475552	1.17196	384.391
492.0000	-4.78694	0.000462311	1.17084	384.109
491.5000	-5.04635	0.000476408	1.16945	383.846
491.0000	-5.04714	0.000468056	1.16828	383.607
490.5000	-5.12593	0.000479903	1.16699	383.398
490.0000	-5.56389	0.000467559	1.16551	383.222
489.5000	-5.58133	0.000432452	1.16381	383.09
489.0000	-5.76941	0.000443752	1.16131	382.895
488.5000	-6.12249	0.000454029	1.15751	382.567
488.0000	-6.41911	0.000402547	1.15191	381.954
487.5000	-6.69007	0.000410063	1.14574	381.1
487.0000	-6.66525	0.000411256	1.14093	380.187
486.5000	-6.93891	0.000400162	1.13576	379.103
486.0000	-7.11223	0.000412698	1.13135	378.051
485.5000	-6.88733	0.000413319	1.12846	377.05
485.0000	-6.95538	0.000431214	1.12644	376.151
484.5000	-7.31036	0.000423948	1.12382	375.381
484.0000	-7.8754	0.00044821	1.12027	374.654
483.5000	-8.24724	0.000454222	1.11645	373.991
483.0000	-8.54279	0.000430427	1.11188	373.334
482.5000	-8.39103	0.00044313	1.10723	372.763
482.0000	-8.87703	0.000432081	1.10218	372.21
481.5000	-8.53351	0.000429543	1.09705	371.647
481.0000	-8.50602	0.000471107	1.09208	371.111
480.5000	-8.86777	0.000440306	1.08688	370.598
480.0000	-9.36107	0.000417906	1.08119	370.076
479.5000	-9.64161	0.00042307	1.07487	369.494
479.0000	-9.72711	0.000407632	1.06598	368.659
478.5000	-9.78127	0.000404181	1.05655	367.57
478.0000	-9.62429	0.00043371	1.04938	366.356
477.5000	-9.6606	0.000421013	1.04629	365.422
477.0000	-9.65433	0.000418151	1.04289	364.648
476.5000	-9.65659	0.000416842	1.03448	363.609
476.0000	-9.38115	0.00041657	1.02446	362.331
475.5000	-9.24676	0.00039101	1.01419	360.812
475.0000	-9.01075	0.000381657	1.00431	359.119
474.5000	-8.91155	0.000380916	0.995394	357.342
474.0000	-8.82202	0.000396677	0.986742	355.412
473.5000	-9.05336	0.000386981	0.97746	353.235
473.0000	-9.43184	0.000381821	0.968437	350.927
472.5000	-9.50655	0.000396062	0.961493	348.612
472.0000	-9.12173	0.000396028	0.957967	346.75
471.5000	-9.01945	0.000406218	0.955258	345.26
471.0000	-8.93712	0.000426554	0.952865	344.345
470.5000	-8.51989	0.000434934	0.95061	343.759
470.0000	-8.5025	0.000425294	0.947055	343.433
469.5000	-8.93475	0.000411908	0.938982	342.945
469.0000	-8.76059	0.000426845	0.925397	341.918
468.5000	-8.96094	0.000407234	0.912886	340.586
468.0000	-8.97622	0.000438609	0.903913	339.282
467.5000	-9.0499	0.000429662	0.897409	338.205
467.0000	-9.09763	0.000427638	0.892526	337.399
466.5000	-9.51343	0.000430703	0.888059	336.812
466.0000	-9.48965	0.000421142	0.882749	336.413
465.5000	-9.4695	0.00043235	0.876924	336.224
465.0000	-9.35985	0.000432522	0.87047	336.29
464.5000	-9.4162	0.000419528	0.861279	336.388
464.0000	-9.78605	0.000424264	0.848537	336.197
463.5000	-9.86747	0.00041582	0.834029	335.611
463.0000	-9.92694	0.000402679	0.820527	334.749
462.5000	-10.2529	0.000399215	0.809332	333.794
462.0000	-10.4659	0.000402244	0.79975	332.832
461.5000	-10.4025	0.000413695	0.791164	331.998
461.0000	-10.4159	0.000398347	0.782972	331.321
460.5000	-10.2621	0.000415152	0.774184	330.744
460.0000	-10.4629	0.000387174	0.765451	330.262
459.5000	-10.2092	0.000381386	0.756012	329.804
459.0000	-10.1967	0.000409201	0.74484	329.219
458.5000	-10.0624	0.000401217	0.732996	328.522
458.0000	-10.1039	0.000385093	0.720364	327.635
457.5000	-10.4059	0.000375377	0.707597	326.524
457.0000	-10.3535	0.000366554	0.695943	325.288
456.5000	-10.3679	0.000345654	0.686473	324.145
456.0000	-9.75314	0.000380323	0.675948	323.018
455.5000	-9.60186	0.000377726	0.662576	321.634
455.0000	-9.48246	0.00037698	0.650661	320.211
454.5000	-9.28436	0.000397333	0.642185	318.995
454.0000	-8.94188	0.000408841	0.634482	318.035
453.5000	-8.73945	0.0004109	0.624526	317.167
453.0000	-8.59384	0.000404772	0.613944	316.31
452.5000	-8.37855	0.000404886	0.603638	315.437
452.0000	-8.38924	0.00041481	0.593437	314.512
451.5000	-8.07642	0.000413901	0.582849	313.556
451.0000	-8.08455	0.00042392	0.572628	312.627
450.5000	-8.07941	0.000441219	0.562105	311.655
450.0000	-7.7392	0.000455313	0.552989	310.771
449.5000	-7.77024	0.000464632	0.545272	310.059
449.0000	-7.19932	0.000477227	0.53784	309.501
448.5000	-7.04264	0.000483689	0.527964	308.86
448.0000	-6.91919	0.000489125	0.517695	308.118
447.5000	-6.93526	0.00049195	0.510249	307.517
447.0000	-6.91786	0.000474413	0.50499	307.191
446.5000	-6.71832	0.00050231	0.497903	306.916
446.0000	-6.85257	0.000502991	0.486546	306.364
445.5000	-6.80264	0.000478681	0.47529	305.546
445.0000	-6.62465	0.000493737	0.465864	304.627
444.5000	-6.57196	0.00050797	0.456932	303.678
444.0000	-6.2934	0.000515238	0.448416	302.743
443.5000	-6.39815	0.00052336	0.439754	301.727
443.0000	-6.44928	0.000533022	0.432734	300.855
442.5000	-6.40292	0.000530067	0.426103	300.03
442.0000	-6.48176	0.000519786	0.42	299.329
441.5000	-6.13221	0.000510717	0.413079	298.584
441.0000	-5.99974	0.000516464	0.406587	297.899
440.5000	-6.1982	0.000513809	0.400191	297.226
440.0000	-6.12575	0.000508299	0.393464	296.527
439.5000	-5.73891	0.000513275	0.386475	295.812
439.0000	-5.60546	0.000518377	0.378915	295.051
438.5000	-5.33999	0.000530733	0.370865	294.267
438.0000	-5.18871	0.000525728	0.362992	293.52
437.5000	-5.03195	0.000541229	0.355524	292.803
437.0000	-4.85719	0.000546393	0.347788	292.081
436.5000	-4.68287	0.000525063	0.341642	291.473
436.0000	-4.6314	0.000528033	0.33586	290.917
435.5000	-4.53481	0.000532043	0.329644	290.387
435.0000	-4.38467	0.000535096	0.322868	289.843
434.5000	-4.23816	0.000531544	0.316042	289.297
434.0000	-4.12296	0.000518271	0.309387	288.734
433.5000	-4.24015	0.000539415	0.303162	288.182
433.0000	-4.10459	0.000537184	0.296947	287.58
432.5000	-3.90687	0.000523184	0.291036	287.001
432.0000	-3.63203	0.000531443	0.284664	286.386
431.5000	-3.59958	0.000530883	0.278506	285.781
431.0000	-3.56144	0.00052227	0.272569	285.183
430.5000	-3.51805	0.000524674	0.266832	284.593
430.0000	-3.5429	0.000524682	0.261646	284.039
429.5000	-3.54837	0.000516297	0.255969	283.447
429.0000	-3.50056	0.000515079	0.250402	282.86
428.5000	-3.27568	0.00052731	0.244854	282.283
428.0000	-3.28688	0.000533941	0.238846	281.691
427.5000	-3.25908	0.000520129	0.23385	281.171
427.0000	-3.12764	0.000513202	0.229023	280.655
426.5000	-2.93165	0.00052447	0.224247	280.136
426.0000	-2.92859	0.000531408	0.219217	279.576
425.5000	-2.68392	0.000533424	0.214295	278.987
425.0000	-2.63149	0.000526107	0.209246	278.378
424.5000	-2.51797	0.000530151	0.204328	277.749
424.0000	-2.42107	0.00053861	0.200031	277.158
423.5000	-2.64206	0.000537564	0.196507	276.641
423.0000	-2.57783	0.000534698	0.192732	276.167
422.5000	-2.60976	0.000537097	0.188862	275.742
422.0000	-2.52933	0.000535391	0.184782	275.328
421.5000	-2.31398	0.000539053	0.1808	274.932
421.0000	-2.11415	0.000538819	0.177316	274.576
420.5000	-1.85168	0.00055214	0.173478	274.192
420.0000	-1.80188	0.000553539	0.169767	273.806
419.5000	-1.75446	0.000551365	0.166124	273.407
419.0000	-1.63489	0.000559874	0.162613	273.031
418.5000	-1.64597	0.000546186	0.159082	272.689
418.0000	-1.69376	0.000557645	0.155989	272.364
417.5000	-1.68977	0.000554786	0.152718	272.042
417.0000	-1.82775	0.000550925	0.150053	271.759
416.5000	-1.81001	0.000551932	0.147599	271.531
416.0000	-1.67191	0.000547588	0.144965	271.35
415.5000	-1.55002	0.000549822	0.14181	271.138
415.0000	-1.48669	0.000560348	0.138553	270.881
414.5000	-1.45547	0.000550999	0.135617	270.58
414.0000	-1.29569	0.000551859	0.133353	270.296
413.5000	-1.39685	0.000557878	0.131024	269.988
413.0000	-1.49946	0.000554888	0.128868	269.709
412.5000	-1.51072	0.000543202	0.126821	269.464
412.0000	-1.52962	0.000542612	0.125026	269.25
411.5000	-1.27772	0.000548562	0.122929	269.032
411.0000	-1.12587	0.000550487	0.121052	268.838
410.5000	-1.06716	0.000548327	0.11933	268.65
410.0000	-0.905801	0.000542371	0.117906	268.488
409.5000	-0.788564	0.000546473	0.116473	268.337
409.0000	-0.773517	0.000539416	0.114995	268.201
408.5000	-0.576105	0.000529939	0.113181	268.062
408.0000	-0.5401	0.000521653	0.111307	267.932
407.5000	-0.383578	0.000526629	0.109263	267.781
407.0000	-0.41588	0.000527129	0.107403	267.621
406.5000	-0.374131	0.000518043	0.105833	267.47
406.0000	-0.244451	0.000523387	0.104209	267.312
405.5000	-0.328119	0.000533727	0.102362	267.139
405.0000	-0.186386	0.000530686	0.100603	266.952
404.5000	-0.212597	0.00053893	0.0989366	266.754
404.0000	-0.315346	0.000534513	0.0977684	266.544
403.5000	-0.408998	0.000541116	0.0964489	266.298
403.0000	-0.53283	0.000533378	0.0956097	266.051
402.5000	-0.520714	0.000532518	0.0943814	265.786
402.0000	-0.741852	0.000533411	0.0937477	265.544
401.5000	-0.67686	0.00052955	0.0930275	265.265
401.0000	-0.728895	0.000536105	0.0923764	265.031
400.5000	-0.845436	0.000536576	0.0917137	264.808
400.0000	-0.81596	0.000560392	0.0910267	264.614
399.5000	-0.814759	0.00054729	0.0909371	264.438
399.0000	-0.806558	0.000544524	0.0908399	264.293
398.5000	-0.909003	0.000535197	0.0904468	264.156
398.0000	-0.871571	0.000527696	0.0901524	264.053
397.5000	-1.03405	0.000515418	0.0897803	263.968
397.0000	-0.953548	0.000498288	0.0898557	263.917
396.5000	-0.896618	0.000500892	0.0897976	263.903
396.0000	-0.800571	0.000494412	0.0897323	263.905
395.5000	-0.743818	0.000485094	0.0893727	263.938
395.0000	-0.786975	0.00048502	0.0891598	264
394.5000	-0.614049	0.000493426	0.0889962	264.08
394.0000	-0.5665	0.000494321	0.0889331	264.19
393.5000	-0.557712	0.000500382	0.0886737	264.325
393.0000	-0.652433	0.000492003	0.0882204	264.47
392.5000	-0.462051	0.000510689	0.0879811	264.609
392.0000	-0.470456	0.000500284	0.0878016	264.718
391.5000	-0.472955	0.000503445	0.0878147	264.811
391.0000	-0.488649	0.00049811	0.0877337	264.896
390.5000	-0.54204	0.000495751	0.0875432	264.983
390.0000	-0.565418	0.000512668	0.0874815	265.071
389.5000	-0.480033	0.000526886	0.0877083	265.146
389.0000	-0.404454	0.000526909	0.0880692	265.211
388.5000	-0.356463	0.00052392	0.08819	265.272
388.0000	-0.278255	0.000533283	0.0882535	265.333
387.5000	-0.368319	0.000530284	0.0886463	265.393
387.0000	-0.39404	0.000530615	0.0894287	265.442
386.5000	-0.57362	0.000528401	0.0900734	265.49
386.0000	-0.613693	0.000518482	0.0908677	265.535
385.5000	-0.684188	0.000516155	0.0916634	265.575
385.0000	-0.585258	0.000503911	0.0925014	265.613
384.5000	-0.666578	0.000490882	0.0932714	265.643
384.0000	-0.749715	0.000488933	0.0943551	265.689
383.5000	-0.673416	0.000485812	0.0952143	265.739
383.0000	-0.553473	0.000485053	0.0959892	265.793
382.5000	-0.495001	0.000490725	0.0968354	265.846
382.0000	-0.480866	0.000501778	0.0980111	265.89
381.5000	-0.384758	0.000493489	0.0993377	265.937
381.0000	-0.409978	0.000501521	0.100375	265.987
380.5000	-0.36106	0.000498549	0.101278	266.041
380.0000	-0.494877	0.000496797	0.10242	266.094
379.5000	-0.415729	0.000506475	0.103612	266.149
379.0000	-0.439705	0.000502101	0.10446	266.206
378.5000	-0.482533	0.000508019	0.104992	266.263
378.0000	-0.299066	0.000506883	0.105561	266.317
377.5000	-0.117441	0.000508923	0.106219	266.366
377.0000	-0.0567895	0.000520671	0.106586	266.39
376.5000	0.000821293	0.000530054	0.10732	266.423
376.0000	0.0277247	0.000539599	0.107997	266.444
375.5000	-0.00619459	0.00053728	0.108362	266.455
375.0000	0.0802175	0.000544257	0.108795	266.464
374.5000	0.00174563	0.00053885	0.109227	266.465
374.0000	0.0317874	0.000538343	0.109471	266.447
373.5000	-0.00474459	0.000522077	0.109847	266.447
373.0000	-0.193684	0.000513415	0.109977	266.447
372.5000	-0.0516673	0.000518025	0.110148	266.442
372.0000	-0.05631	0.00051742	0.110408	266.44
371.5000	-0.106477	0.000518094	0.110611	266.441
371.0000	-0.134684	0.00050059	0.111065	266.448
370.5000	-0.184645	0.000508778	0.111556	266.454
370.0000	-0.12865	0.000510852	0.111885	266.459
369.5000	-0.241835	0.000501902	0.112223	266.472
369.0000	-0.245404	0.000506874	0.11269	266.497
368.5000	-0.324703	0.000503542	0.113434	266.541
368.0000	-0.390931	0.000504795	0.113851	266.581
367.5000	-0.246678	0.000500035	0.114465	266.633
367.0000	-0.0272923	0.00049376	0.115343	266.692
366.5000	-0.0436503	0.000486257	0.116066	266.766
366.0000	-0.124623	0.000486628	0.116701	266.843
365.5000	-0.171466	0.000483986	0.11735	266.923
365.0000	-0.0989263	0.00048341	0.117724	266.991
364.5000	-0.0690643	0.000484718	0.118441	267.069
364.0000	0.0418841	0.000469601	0.118971	267.147
363.5000	0.134661	0.00046292	0.119932	267.236
363.0000	0.303057	0.000461492	0.12071	267.313
362.5000	0.358929	0.000460075	0.121357	267.391
362.0000	0.566416	0.000449151	0.122018	267.472
361.5000	0.699437	0.000469575	0.122789	267.548
361.0000	0.72545	0.000471452	0.123501	267.621
360.5000	0.565185	0.000465822	0.123987	267.694
360.0000	0.645149	0.000461757	0.124572	267.766
359.5000	0.682172	0.000460971	0.124969	267.829
359.0000	0.641006	0.000459484	0.125088	267.889
358.5000	0.705582	0.00047019	0.125163	267.954
358.0000	0.594357	0.000464016	0.12527	268.02
357.5000	0.65122	0.000464967	0.125355	268.084
357.0000	0.646575	0.000467046	0.12581	268.159
356.5000	0.755524	0.000477823	0.126437	268.221
356.0000	0.857119	0.000465096	0.126699	268.282
355.5000	0.745354	0.000460505	0.12687	268.338
355.0000	0.797972	0.000460896	0.126872	268.389
354.5000	0.706288	0.000457251	0.126892	268.443
354.0000	0.767437	0.000459674	0.127116	268.505
353.5000	0.711067	0.000465875	0.127442	268.576
353.0000	0.570001	0.000450321	0.127672	268.645
352.5000	0.552058	0.000451489	0.127965	268.718
352.0000	0.83989	0.000438599	0.128246	268.789
351.5000	0.718145	0.000430462	0.128541	268.858
351.0000	0.798929	0.000428785	0.129045	268.917
350.5000	0.818168	0.000416076	0.129733	268.981
350.0000	0.730228	0.00041938	0.130502	269.048
349.5000	0.870747	0.000406407	0.131358	269.116
349.0000	0.859362	0.000408253	0.132379	269.19
348.5000	0.889217	0.000405346	0.133273	269.247
348.0000	0.688879	0.000400495	0.133981	269.31
347.5000	0.519105	0.000416684	0.134986	269.373
347.0000	0.485051	0.000423614	0.136104	269.444
346.5000	0.391815	0.000427049	0.136898	269.503
346.0000	0.442443	0.000426743	0.137774	269.576
345.5000	0.355716	0.000413507	0.138691	269.637
345.0000	0.457192	0.000402507	0.139771	269.71
344.5000	0.508436	0.000402369	0.140822	269.78
344.0000	0.581693	0.000399731	0.141896	269.835
343.5000	0.495456	0.000398017	0.142796	269.899
343.0000	0.562363	0.000390777	0.14356	269.959
342.5000	0.606291	0.000391809	0.144273	270.028
342.0000	0.590661	0.000386076	0.144882	270.091
341.5000	0.587448	0.000394508	0.145632	270.158
341.0000	0.668881	0.000397732	0.146447	270.212
340.5000	0.752502	0.000388258	0.147181	270.284
340.0000	0.661236	0.000384599	0.147918	270.358
339.5000	0.885512	0.000370818	0.148428	270.435
339.0000	0.825823	0.000354286	0.149111	270.504
338.5000	0.839648	0.000350589	0.15	270.583
338.0000	0.908474	0.000345422	0.150715	270.653
337.5000	0.972622	0.000357191	0.151402	270.728
337.0000	1.02281	0.000358234	0.151983	270.803
336.5000	1.08426	0.000357596	0.152744	270.874
336.0000	1.20463	0.000346504	0.153534	270.96
335.5000	1.22907	0.00035731	0.154307	271.043
335.0000	1.15669	0.000355492	0.154983	271.118
334.5000	1.28175	0.000350837	0.155676	271.204
334.0000	1.37404	0.00035182	0.156532	271.292
333.5000	1.39994	0.000355151	0.157913	271.396
333.0000	1.29976	0.00035138	0.158991	271.503
332.5000	1.15251	0.000339822	0.159654	271.601
332.0000	1.15719	0.000341305	0.160356	271.695
331.5000	1.31885	0.000346956	0.161351	271.795
331.0000	1.31758	0.000354351	0.162497	271.905
330.5000	1.35457	0.000361332	0.163329	272.008
330.0000	1.19938	0.000348992	0.164332	272.117
329.5000	1.22989	0.000348093	0.1656	272.25
329.0000	1.1544	0.000319768	0.166618	272.371
328.5000	1.14075	0.000317347	0.167767	272.492
328.0000	1.06585	0.000313732	0.168546	272.59
327.5000	0.971663	0.000303224	0.169452	272.682
327.0000	0.972414	0.000290955	0.170621	272.774
326.5000	1.02041	0.00028917	0.172125	272.893
326.0000	0.796452	0.000283594	0.173869	273.031
325.5000	0.766606	0.000282351	0.1753	273.161
325.0000	0.694573	0.000275384	0.176374	273.289
324.5000	0.774223	0.00026886	0.177643	273.421
324.0000	0.95776	0.000269016	0.179239	273.566
323.5000	0.995263	0.00026826	0.181124	273.726
323.0000	0.835154	0.000263346	0.182722	273.885
322.5000	0.732997	0.000250593	0.184256	274.042
322.0000	0.77263	0.000260017	0.185772	274.209
321.5000	0.886532	0.000261747	0.187434	274.369
321.0000	0.742139	0.000243901	0.189093	274.525
320.5000	0.837726	0.000244893	0.190719	274.673
320.0000	0.84684	0.000255552	0.19221	274.822
319.5000	0.919881	0.000251254	0.193909	274.99
319.0000	1.00342	0.000256758	0.195601	275.181
318.5000	0.99003	0.000244739	0.197328	275.384
318.0000	0.965526	0.000243577	0.198835	275.562
317.5000	1.13204	0.000237462	0.200289	275.718
317.0000	1.15182	0.000235479	0.202101	275.878
316.5000	1.16464	0.000228676	0.204018	276.035
316.0000	1.13237	0.000215127	0.205958	276.197
315.5000	1.06138	0.000212445	0.207632	276.367
315.0000	1.08377	0.000211059	0.20937	276.554
314.5000	1.02039	0.000208661	0.21111	276.742
314.0000	1.31272	0.00021446	0.213003	276.934
313.5000	1.41798	0.000201073	0.215035	277.135
313.0000	1.60129	0.00019814	0.217126	277.352
312.5000	1.67627	0.00020145	0.219113	277.571
312.0000	1.45781	0.000199919	0.221241	277.784
311.5000	1.48228	0.000190813	0.223409	278.013
311.0000	1.33733	0.000184289	0.225945	278.253
310.5000	1.27532	0.000173299	0.228285	278.515
310.0000	1.18226	0.000191781	0.23074	278.767
309.5000	1.08632	0.000178929	0.233361	279.031
309.0000	1.06659	0.000176125	0.23635	279.336
308.5000	1.16837	0.00017354	0.239257	279.662
308.0000	1.13353	0.000181611	0.242193	279.986
307.5000	1.11692	0.00018122	0.245729	280.358
307.0000	1.09387	0.00018186	0.2493	280.714
306.5000	1.10056	0.000171633	0.25322	281.104
306.0000	1.24081	0.000156578	0.257457	281.509
305.5000	1.1496	0.000148146	0.261914	281.962
305.0000	1.20862	0.000155905	0.266557	282.422
304.5000	1.06588	0.000152796	0.271944	282.936
304.0000	1.05721	0.000146881	0.2778	283.487
303.5000	1.03214	0.00014903	0.283866	284.058
303.0000	1.01728	0.000142176	0.290444	284.7
302.5000	1.07069	0.0001381	0.297324	285.376
302.0000	0.960003	0.000146501	0.304696	286.08
301.5000	0.895993	0.000128738	0.31243	286.815
301.0000	1.11038	0.000136068	0.320207	287.577
300.5000	1.15453	0.000144007	0.327393	288.284
300.0000	1.04636	0.00012901	0.336198	289.119
299.5000	1.12594	0.000111376	0.344706	289.938
299.0000	1.06454	0.000122128	0.353127	290.766
298.5000	1.13255	0.000123124	0.361796	291.63
298.0000	1.26833	0.000117016	0.370092	292.449
297.5000	1.15559	0.000113574	0.378707	293.296
297.0000	1.22412	0.00011274	0.386783	294.048
296.5000	1.26091	0.000120423	0.394296	294.768
296.0000	1.3973	0.000110771	0.401712	295.485
295.5000	1.32373	0.000106406	0.409129	296.176
295.0000	1.33375	0.000106974	0.415978	296.797
294.5000	1.25905	0.000106373	0.422605	297.411
294.0000	1.20635	0.00011714	0.429012	298.046
293.5000	1.27515	0.000121701	0.434042	298.564
293.0000	1.22769	0.000125903	0.439365	299.105
292.5000	1.23613	0.000126265	0.444474	299.646
292.0000	1.30055	0.000121388	0.449005	300.144
291.5000	1.17297	0.000132248	0.453272	300.605
291.0000	1.08901	0.000137226	0.45742	301.052
290.5000	1.0223	0.000135993	0.461691	301.506
290.0000	0.919683	0.00015081	0.465641	301.91
289.5000	0.720061	0.000150541	0.46898	302.283
289.0000	0.63467	0.000168084	0.472215	302.654
288.5000	0.514548	0.000168926	0.475768	303.067
288.0000	0.159804	0.000167034	0.479224	303.475
287.5000	0.370071	0.000200983	0.48281	303.908
287.0000	0.155093	0.000211127	0.486264	304.368
286.5000	0.107143	0.000239222	0.489366	304.815
286.0000	0.174508	0.000234515	0.492442	305.223
285.5000	0.180784	0.000254191	0.496107	305.639
285.0000	-0.129214	0.00027132	0.499978	306.08
284.5000	-0.113971	0.000280713	0.503503	306.489
284.0000	-0.214499	0.000292971	0.507233	306.918
283.5000	-0.573525	0.000302783	0.511322	307.37
283.0000	-0.656719	0.000294769	0.515307	307.817
282.5000	-0.55739	0.000306151	0.519512	308.283
282.0000	-0.369125	0.000336753	0.523717	308.783
281.5000	-0.415031	0.00032696	0.527862	309.28
281.0000	-0.443486	0.000346699	0.532477	309.804
280.5000	-0.597158	0.000355905	0.537251	310.369
280.0000	-0.809935	0.000369041	0.542342	310.962
279.5000	-1.06957	0.00036151	0.547746	311.599
279.0000	-1.36745	0.000356776	0.553067	312.235
278.5000	-1.36839	0.000368378	0.559261	312.955
278.0000	-1.54538	0.000362071	0.566709	313.763
277.5000	-1.57551	0.000375214	0.573763	314.53
277.0000	-1.62102	0.000368797	0.581304	315.379
276.5000	-1.65312	0.000382702	0.589323	316.292
276.0000	-1.96966	0.000399326	0.59705	317.162
275.5000	-1.83378	0.000403798	0.606472	318.189
275.0000	-1.57466	0.000412472	0.616333	319.27
274.5000	-1.50988	0.000448504	0.626741	320.431
274.0000	-1.64296	0.000459476	0.63823	321.739
273.5000	-2.22149	0.000458903	0.649558	322.994
273.0000	-2.28338	0.000471901	0.662359	324.406
272.5000	-2.34416	0.000480555	0.675882	325.908
272.0000	-2.52013	0.000490918	0.690087	327.503
271.5000	-2.41063	0.000519796	0.705926	329.285
271.0000	-2.42618	0.000537282	0.722076	331.071
270.5000	-2.37977	0.000531402	0.739372	332.97
270.0000	-2.40155	0.000537872	0.757184	334.968
269.5000	-2.21761	0.000559061	0.775889	337.108
269.0000	-2.57554	0.000558552	0.794747	339.258
268.5000	-3.12757	0.000587486	0.815924	341.665
268.0000	-3.07664	0.000592709	0.83833	344.211
267.5000	-3.2131	0.000601109	0.861788	346.897
267.0000	-3.70542	0.000623795	0.887451	349.885
266.5000	-4.33014	0.000637375	0.914069	353.024
266.0000	-4.39213	0.000646666	0.939402	355.978
265.5000	-4.50683	0.000643963	0.967081	359.195
265.0000	-5.01485	0.000656228	0.99654	362.69
264.5000	-5.25964	0.000674764	1.0246	366.075
264.0000	-4.9998	0.000727359	1.05283	369.507
263.5000	-5.87548	0.000737052	1.08278	373.147
263.0000	-6.29161	0.00070181	1.10986	376.47
262.5000	-6.53392	0.000733162	1.13923	380.15
262.0000	-6.7604	0.000734014	1.16656	383.651
261.5000	-6.50121	0.000742898	1.19381	387.141
261.0000	-6.9878	0.000745866	1.21975	390.439
260.5000	-7.08634	0.000754057	1.24637	393.876
260.0000	-6.53352	0.000764808	1.27261	397.313
259.5000	-6.36171	0.000768536	1.29861	400.764
259.0000	-6.21905	0.000777019	1.32405	404.203
258.5000	-6.26523	0.00073538	1.3496	407.64
258.0000	-6.01675	0.000698495	1.37486	411.069
257.5000	-5.80216	0.000698136	1.39879	414.34
257.0000	-5.43466	0.000700377	1.42405	417.821
256.5000	-4.92913	0.000699047	1.44811	421.152
256.0000	-5.52409	0.000711414	1.47388	424.72
255.5000	-5.28045	0.000683094	1.49987	428.325
255.0000	-4.50089	0.000698529	1.526	431.987
254.5000	-4.45636	0.00072889	1.5509	435.504
254.0000	-4.81427	0.000697953	1.57585	439.042
253.5000	-5.25414	0.000688524	1.60392	442.983
253.0000	-5.75588	0.000671876	1.62895	446.553
252.5000	-6.74858	0.000628136	1.66515	451.82
252.0000	-7.41461	0.000607395	1.69447	456.108
251.5000	-8.28135	0.000593538	1.7192	459.738
251.0000	-9.11175	0.0005784	1.74351	463.285
250.5000	-9.09026	0.000540477	1.76693	466.758
250.0000	-9.48216	0.000595107	1.78822	469.964
249.5000	-9.92037	0.000637044	1.80857	473.061
249.0000	-9.93314	0.000529596	1.82909	476.203
248.5000	-10.8251	0.000454454	1.84805	479.096
248.0000	-10.697	0.000434068	1.86715	482.044
247.5000	-11.0839	0.000332052	1.88449	484.765
247.0000	-12.1336	0.000313082	1.9022	487.578
246.5000	-13.2489	0.000240206	1.91962	490.337
246.0000	-13.3254	0.000211709	1.937	493.077
245.5000	-13.9935	0.000235073	1.95472	495.954
245.0000	-13.5132	0.000230757	1.9725	498.852
244.5000	-12.9036	0.00019233	1.99056	501.795
244.0000	-12.6997	0.000192142	2.00887	504.818
243.5000	-12.79	8.20264E-005	2.02681	507.815
243.0000	-13.1484	-2.81246E-006	2.04542	510.969
242.5000	-14.0552	1.70425E-005	2.06697	514.648
242.0000	-14.7538	-8.12532E-005	2.08676	518.039
241.5000	-14.7075	-0.000267856	2.11017	522.062
241.0000	-15.0735	-0.000226319	2.13287	525.978
240.5000	-14.5598	-0.000246014	2.15952	530.663
240.0000	-14.8242	-0.000303088	2.18552	535.249
239.5000	-16.7824	-0.000355088	2.21824	541.038
239.0000	-16.5514	-0.000622547	2.24899	546.476
238.5000	-14.5906	-0.000629965	2.28377	552.672
238.0000	-14.632	-0.000651413	2.32281	559.734
237.5000	-13.4239	-0.000632659	2.36064	566.654
237.0000	-13.2813	-0.000748389	2.40296	574.458
236.5000	-14.2093	-0.000893698	2.44803	582.848
236.0000	-13.602	-0.000753487	2.49336	591.357
235.5000	-13.2921	-0.000700056	2.54848	601.868
235.0000	-14.6879	-0.000548082	2.58753	609.411
234.5000	-15.2714	-0.000525424	2.63089	617.849
234.0000	-12.8902	-0.000432798	2.67861	627.224
233.5000	-13.802	-0.000251099	2.73381	638.17
233.0000	-12.7198	0.000161845	2.79365	650.215
232.5000	-15.2476	1.98441E-005	2.85209	662.21
232.0000	-16.4171	-9.5927E-005	2.92096	676.634
231.5000	-16.5667	7.03476E-005	2.97792	688.82
231.0000	-17.7516	3.46121E-005	3.04165	702.702
230.5000	-15.0576	0.000399039	3.1046	716.765
230.0000	-15.7951	0.000564411	3.16324	730.218
229.5000	-17.5417	0.00062954	3.22341	744.309
229.0000	-12.7031	0.000725234	3.28114	758.183
228.5000	-12.3635	0.00089175	3.33649	771.771
228.0000	-12.7821	0.00082026	3.38602	784.251
227.5000	-12.0757	0.000927588	3.43439	796.89
227.0000	-12.1658	0.000789133	3.47915	808.944
226.5000	-9.7852	0.000475318	3.52202	820.87
226.0000	-7.7667	0.00043981	3.55661	830.924
225.5000	-4.59791	0.000416765	3.58878	840.723
225.0000	-5.14603	0.000318174	3.61627	849.692
224.5000	-7.02952	0.000294355	3.63912	857.748
224.0000	-4.8358	0.000336969	3.65778	864.886
223.5000	-3.5676	0.000470704	3.67242	871.071
223.0000	-5.24357	0.000515495	3.68325	876.36
222.5000	-3.91415	0.000459371	3.69095	881.607
222.0000	-0.876192	0.000501319	3.69374	885.442
221.5000	2.53068	0.000477385	3.69283	888.582
221.0000	-1.78071	0.000588585	3.6897	890.721
220.5000	-1.22347	0.00034273	3.68439	892.373
220.0000	-4.14112	0.00053573	3.67723	893.755

##### Extended Information
[Comments]
Sample name	JS187+JS190_5E-5_H2O_60-40
Comment
User
Division
Company	Labo systeme complexes hors equilibre

[Detailed Information]
Creation date	1/23/2024 11:55 AM

Data array type	Linear data array * 4
Horizontal axis	Wavelength [nm]
Vertical axis(1)	CD [mdeg]
Vertical axis(2)	LD [dOD]
Vertical axis(3)	Abs
Vertical axis(4)	HT [V]
Start	700 nm
End	220 nm
Data interval	0.5 nm
Data points	961     

[Measurement Information]
Instrument name	CD Jasco
Model name	J-1500
Serial No.	A005261638

Detector	PM-539
Detector S/N	A0052PM539
  Lock-in amp.	X mode
  HT volt	Auto

Detector	EXPML-535
Detector S/N	A0001
  Lock-in amp.	X mode
  HT volt	Auto

Measurement date	1/23/2024 11:55 AM

Overload detect	1
Photometric mode	CD, LD, Abs, HT
Measure range	700 - 220 nm
Data pitch	0.5 nm
CD scale	200 mdeg/1.0 dOD
FL scale	200 mdeg/1.0 dOD
D.I.T.	1 sec
Bandwidth	1.00 nm
Start mode	Immediately
Scanning speed	500 nm/min
Baseline correction	Baseline
Shutter control	Auto


