TITLE	JS187+JS190_5E-5_H2O_30-70
DATA TYPE	
ORIGIN	JASCO
OWNER	
DATE	24/01/23
TIME	11:31:07
SPECTROMETER/DATA SYSTEM	
LOCALE	1033
RESOLUTION	
DELTAX	-0.5
XUNITS	NANOMETERS
YUNITS	CD [mdeg]
Y2UNITS	LD [dOD]
Y3UNITS	ABSORBANCE
Y4UNITS	HT [V]
FIRSTX	  700.0000
LASTX	  220.0000
NPOINTS	     961
FIRSTY	     1.45526
MAXY	    16.17105
MINY	   -20.44063
XYDATA
700.0000	1.45526	8.53608E-005	-0.0566776	298.963
699.5000	1.40453	8.36297E-005	-0.0578656	298.649
699.0000	1.54964	7.63297E-005	-0.0591501	298.282
698.5000	1.62567	9.17071E-005	-0.0601149	297.861
698.0000	1.65622	8.12183E-005	-0.0616246	297.39
697.5000	1.61719	8.70361E-005	-0.063424	296.917
697.0000	1.4791	0.000108346	-0.0654803	296.403
696.5000	1.43716	0.000117287	-0.0667463	295.881
696.0000	1.38885	0.000119724	-0.0672121	295.318
695.5000	1.36493	0.00010851	-0.0674074	294.782
695.0000	1.3042	7.53098E-005	-0.0668894	294.315
694.5000	1.14149	6.79331E-005	-0.0660384	293.898
694.0000	1.33805	6.18933E-005	-0.0640252	293.514
693.5000	1.43215	7.43621E-005	-0.0616185	293.171
693.0000	1.36048	8.67627E-005	-0.0587132	292.873
692.5000	1.18753	9.13128E-005	-0.0557972	292.599
692.0000	1.07295	0.000103558	-0.0528352	292.369
691.5000	0.930718	8.69554E-005	-0.0497865	292.156
691.0000	0.959305	8.63138E-005	-0.0468795	291.949
690.5000	1.08358	0.000102068	-0.0448441	291.764
690.0000	1.10611	0.000114742	-0.0429259	291.615
689.5000	0.963995	0.000123295	-0.0406588	291.521
689.0000	0.798671	0.000106809	-0.0373351	291.508
688.5000	0.992073	9.92953E-005	-0.0335535	291.617
688.0000	0.7886	9.18777E-005	-0.0290754	291.816
687.5000	0.658292	0.000106823	-0.024554	292.067
687.0000	0.652712	0.000116954	-0.0208899	292.317
686.5000	0.651987	0.000110327	-0.0182141	292.564
686.0000	0.650981	0.000106439	-0.0172084	292.788
685.5000	0.773515	0.000112697	-0.0172752	293.013
685.0000	0.61635	0.00010102	-0.0177804	293.233
684.5000	0.411866	8.27614E-005	-0.0187329	293.454
684.0000	0.861409	9.59716E-005	-0.0202563	293.659
683.5000	0.989939	0.000107612	-0.0213176	293.869
683.0000	0.800027	0.000108749	-0.0221877	294.11
682.5000	0.5842	9.29162E-005	-0.0223661	294.371
682.0000	0.888543	7.15796E-005	-0.0225126	294.672
681.5000	0.921587	5.06347E-005	-0.0224247	294.949
681.0000	1.10629	4.64118E-005	-0.0226138	295.212
680.5000	1.31868	5.03282E-005	-0.0234668	295.389
680.0000	1.3444	3.97826E-005	-0.0259064	295.487
679.5000	1.41796	2.97794E-005	-0.0288733	295.528
679.0000	1.40592	4.17692E-005	-0.0327245	295.533
678.5000	1.45827	3.9501E-005	-0.0352002	295.533
678.0000	1.72336	5.68017E-005	-0.0373499	295.524
677.5000	1.71442	5.37933E-005	-0.0385655	295.512
677.0000	1.61033	6.20558E-005	-0.0391336	295.49
676.5000	1.83116	7.68284E-005	-0.0388764	295.475
676.0000	1.70807	6.70431E-005	-0.0385202	295.466
675.5000	1.44105	5.55139E-005	-0.0380962	295.463
675.0000	1.41475	5.85462E-005	-0.0373362	295.477
674.5000	1.37203	6.24571E-005	-0.0363003	295.487
674.0000	1.20553	9.21501E-005	-0.0352816	295.497
673.5000	1.03551	8.81107E-005	-0.0339197	295.54
673.0000	0.902715	0.000103383	-0.0336278	295.576
672.5000	0.732312	9.70796E-005	-0.0334044	295.616
672.0000	0.597387	0.000112709	-0.0328092	295.668
671.5000	0.565805	0.000120745	-0.0317172	295.724
671.0000	0.396478	0.00010263	-0.0306538	295.78
670.5000	0.48497	0.000108963	-0.0293876	295.838
670.0000	0.286219	0.00012326	-0.028289	295.903
669.5000	0.374014	0.000113665	-0.0276238	295.98
669.0000	0.40887	0.000106709	-0.0269025	296.061
668.5000	0.640505	8.13717E-005	-0.0261944	296.145
668.0000	0.616325	6.35206E-005	-0.0256246	296.247
667.5000	0.807978	7.26244E-005	-0.0251636	296.355
667.0000	0.668876	6.99512E-005	-0.024939	296.469
666.5000	0.829011	6.37268E-005	-0.0247209	296.581
666.0000	0.729158	6.9893E-005	-0.02504	296.717
665.5000	0.974134	5.16424E-005	-0.0251266	296.835
665.0000	0.940909	5.95679E-005	-0.0243486	296.96
664.5000	1.29979	6.9166E-005	-0.0233958	297.072
664.0000	1.1878	6.86137E-005	-0.0232218	297.175
663.5000	1.14757	6.78435E-005	-0.0240662	297.275
663.0000	1.42614	7.44572E-005	-0.0242184	297.361
662.5000	1.40395	9.0103E-005	-0.0244725	297.441
662.0000	1.46376	6.59308E-005	-0.0248967	297.501
661.5000	1.25735	6.93495E-005	-0.0248242	297.546
661.0000	1.1071	7.00012E-005	-0.0252311	297.572
660.5000	0.933389	8.61978E-005	-0.0258202	297.589
660.0000	1.18341	0.000103478	-0.026168	297.594
659.5000	1.10265	0.000113475	-0.0268943	297.595
659.0000	1.12114	0.000106913	-0.0274819	297.574
658.5000	0.853677	0.000108266	-0.0279809	297.527
658.0000	0.855295	0.000101058	-0.0281011	297.465
657.5000	1.04008	0.00012143	-0.02886	297.377
657.0000	0.857119	0.000116232	-0.0287707	297.267
656.5000	0.822986	0.00012516	-0.0298921	297.126
656.0000	1.11998	0.000132629	-0.0308062	296.981
655.5000	1.26641	0.00012854	-0.0303035	296.819
655.0000	1.19053	0.000131944	-0.0301857	296.673
654.5000	1.15199	0.000131997	-0.0305471	296.529
654.0000	1.06908	0.000131492	-0.0299972	296.395
653.5000	1.2702	0.000142941	-0.0286792	296.275
653.0000	1.41751	0.000157703	-0.0268171	296.186
652.5000	1.23442	0.000162729	-0.0250394	296.116
652.0000	1.37181	0.000166201	-0.0229405	296.085
651.5000	1.13953	0.000157085	-0.0205185	296.066
651.0000	1.17612	0.000156346	-0.0176807	296.071
650.5000	1.29997	0.000178662	-0.0154861	296.11
650.0000	1.59678	0.000173069	-0.0129248	296.169
649.5000	1.22311	0.000162882	-0.0108073	296.261
649.0000	1.05646	0.000168877	-0.00845455	296.374
648.5000	1.25438	0.000155353	-0.00701716	296.511
648.0000	1.46732	0.000151278	-0.00524772	296.669
647.5000	1.18252	0.000159727	-0.0038115	296.821
647.0000	0.986046	0.000171319	-0.00294442	296.992
646.5000	1.01577	0.000156952	-0.00228929	297.164
646.0000	1.14914	0.000157046	-0.000860117	297.327
645.5000	1.02755	0.000157109	-0.000406235	297.471
645.0000	1.07837	0.000155187	-0.00113335	297.599
644.5000	1.13069	0.000163128	-0.00166059	297.698
644.0000	1.17969	0.000161488	-0.00206759	297.772
643.5000	1.06852	0.000151409	-0.00286428	297.822
643.0000	1.13213	0.000164461	-0.00364134	297.844
642.5000	1.37403	0.000154421	-0.00429261	297.85
642.0000	1.27068	0.000173962	-0.0047329	297.84
641.5000	1.38796	0.000186782	-0.00527929	297.812
641.0000	1.48202	0.000173494	-0.00560199	297.759
640.5000	1.54905	0.000175899	-0.00534998	297.709
640.0000	1.22387	0.000174992	-0.00491224	297.643
639.5000	1.05097	0.000150469	-0.00393346	297.587
639.0000	1.32034	0.000167459	-0.00328331	297.515
638.5000	1.55996	0.00016021	-0.0022017	297.431
638.0000	1.71936	0.000164343	-0.00168085	297.348
637.5000	1.67012	0.000171144	-0.00144739	297.255
637.0000	1.49532	0.00017252	-0.000276693	297.167
636.5000	1.57991	0.000168624	0.000704224	297.089
636.0000	1.7169	0.000150102	0.00111969	297.024
635.5000	1.89765	0.000154622	0.00156403	296.954
635.0000	1.87153	0.000167176	0.00249066	296.893
634.5000	1.75184	0.000152793	0.00338226	296.843
634.0000	1.58693	0.00015831	0.00407641	296.786
633.5000	1.5571	0.000150398	0.0044783	296.74
633.0000	1.47704	0.00016709	0.00534421	296.691
632.5000	1.53968	0.000163698	0.00568055	296.653
632.0000	1.64486	0.000182638	0.00601119	296.614
631.5000	1.77575	0.000190051	0.00653499	296.567
631.0000	1.94868	0.000208331	0.00700169	296.519
630.5000	1.91913	0.000201417	0.00729446	296.456
630.0000	1.74777	0.000206047	0.00764426	296.391
629.5000	1.90258	0.000207317	0.00830973	296.342
629.0000	1.96177	0.000226505	0.00865141	296.285
628.5000	2.11282	0.000210327	0.00873777	296.224
628.0000	2.08055	0.000217591	0.00905332	296.158
627.5000	1.80891	0.000226421	0.00963792	296.084
627.0000	1.76545	0.000216341	0.00977394	296.018
626.5000	1.91678	0.000224661	0.00959941	295.951
626.0000	1.73928	0.000219257	0.00949482	295.883
625.5000	1.81655	0.000226047	0.0102502	295.837
625.0000	1.78414	0.000210206	0.0110773	295.791
624.5000	1.82676	0.000206137	0.011944	295.752
624.0000	1.80675	0.000212023	0.0127025	295.722
623.5000	1.83125	0.000215685	0.0134987	295.701
623.0000	1.72934	0.000212993	0.0143708	295.703
622.5000	1.62643	0.000211251	0.015525	295.728
622.0000	1.44249	0.000217205	0.0163265	295.756
621.5000	1.55854	0.000216314	0.0171611	295.794
621.0000	1.45873	0.000216226	0.0180451	295.841
620.5000	1.50851	0.000195032	0.0185854	295.891
620.0000	1.30138	0.000203341	0.0190778	295.96
619.5000	1.22129	0.00020104	0.0198292	296.044
619.0000	1.37513	0.000198078	0.0211239	296.152
618.5000	1.4544	0.00021299	0.0228055	296.272
618.0000	1.41548	0.000208591	0.0245857	296.404
617.5000	1.73271	0.000198335	0.025237	296.531
617.0000	1.81294	0.000217264	0.0256883	296.671
616.5000	2.02054	0.000222859	0.0260624	296.8
616.0000	1.9646	0.000226351	0.0269749	296.936
615.5000	2.08135	0.000224539	0.0273923	297.063
615.0000	2.36815	0.000231806	0.0276822	297.187
614.5000	2.56106	0.000227806	0.0278629	297.317
614.0000	2.70246	0.000236201	0.0280499	297.444
613.5000	2.7415	0.000234684	0.0284293	297.568
613.0000	2.68355	0.000245049	0.0288305	297.71
612.5000	2.63698	0.00025816	0.0291323	297.833
612.0000	2.73726	0.000251493	0.0296705	297.967
611.5000	2.56002	0.000262309	0.0304241	298.092
611.0000	2.55812	0.000257797	0.0306749	298.218
610.5000	2.60315	0.000253216	0.030832	298.342
610.0000	2.41024	0.000240494	0.0307163	298.448
609.5000	2.48618	0.0002433	0.0312034	298.55
609.0000	2.43366	0.00023819	0.0316144	298.641
608.5000	2.50322	0.000236594	0.0323925	298.732
608.0000	2.44022	0.000257012	0.0326943	298.808
607.5000	2.44829	0.000240344	0.0327091	298.896
607.0000	2.25554	0.000239348	0.0330812	298.983
606.5000	1.95268	0.0002264	0.033478	299.059
606.0000	1.97855	0.000230933	0.0346029	299.138
605.5000	1.86502	0.000244897	0.0354334	299.218
605.0000	1.68961	0.000243412	0.0365604	299.292
604.5000	1.76041	0.000251861	0.0374924	299.37
604.0000	1.72757	0.000263104	0.0386885	299.445
603.5000	1.57275	0.000260898	0.0399897	299.514
603.0000	1.74352	0.00026835	0.0406874	299.565
602.5000	1.71575	0.000262792	0.0419323	299.622
602.0000	1.85462	0.000270491	0.0433641	299.681
601.5000	1.94591	0.000276014	0.0447104	299.743
601.0000	2.0114	0.000273863	0.046022	299.802
600.5000	2.00505	0.000285799	0.0478206	299.854
600.0000	1.78016	0.000275789	0.0492412	299.894
599.5000	1.9582	0.000287301	0.0515259	299.932
599.0000	2.03073	0.000308976	0.0533569	299.961
598.5000	2.01529	0.000318846	0.0557654	299.987
598.0000	2.02458	0.000326271	0.057821	300.019
597.5000	2.15785	0.000329228	0.0597547	300.058
597.0000	2.19516	0.000318602	0.0619532	300.092
596.5000	2.27999	0.000323116	0.0641018	300.098
596.0000	2.30704	0.0003379	0.0665184	300.123
595.5000	2.5473	0.000333814	0.0686572	300.138
595.0000	2.48341	0.000320589	0.0712437	300.156
594.5000	2.36334	0.000316478	0.0739613	300.188
594.0000	2.63895	0.000331818	0.0761621	300.221
593.5000	2.53219	0.000341496	0.0789881	300.26
593.0000	2.33654	0.000351471	0.082352	300.318
592.5000	2.53836	0.00037394	0.0852091	300.393
592.0000	2.59955	0.000383067	0.0881106	300.495
591.5000	2.3429	0.000376574	0.0905029	300.576
591.0000	2.24003	0.000372951	0.0935977	300.68
590.5000	2.21255	0.000364982	0.0965407	300.81
590.0000	2.24755	0.000359406	0.0998199	300.963
589.5000	2.19779	0.000352556	0.103161	301.107
589.0000	2.03204	0.000360218	0.106782	301.283
588.5000	1.76482	0.000358838	0.110388	301.482
588.0000	1.80981	0.000351866	0.114562	301.72
587.5000	1.54813	0.000364897	0.118838	301.983
587.0000	1.64827	0.000364801	0.123118	302.283
586.5000	1.5461	0.000349044	0.127324	302.585
586.0000	1.06121	0.00035205	0.132141	302.896
585.5000	1.03565	0.000346239	0.136689	303.233
585.0000	1.13469	0.000346057	0.141178	303.58
584.5000	1.08767	0.000358141	0.145681	303.93
584.0000	0.825717	0.000362069	0.150845	304.319
583.5000	0.65684	0.00035225	0.156572	304.76
583.0000	0.392355	0.000358505	0.163013	305.248
582.5000	0.314171	0.000368374	0.169344	305.766
582.0000	-0.190949	0.000374403	0.175689	306.282
581.5000	-0.53475	0.000401234	0.182642	306.862
581.0000	-0.937271	0.000412267	0.190196	307.476
580.5000	-0.923036	0.000424858	0.197889	308.109
580.0000	-1.21555	0.000442718	0.205297	308.735
579.5000	-1.54435	0.000451609	0.212881	309.394
579.0000	-1.8445	0.000468508	0.220892	310.084
578.5000	-2.22696	0.000503902	0.229697	310.811
578.0000	-2.4856	0.000525326	0.238602	311.579
577.5000	-2.95352	0.000528502	0.24775	312.43
577.0000	-3.60922	0.0005325	0.257804	313.285
576.5000	-3.87907	0.000533899	0.268721	314.22
576.0000	-4.51605	0.000525492	0.279361	315.137
575.5000	-5.02918	0.00054355	0.290821	316.121
575.0000	-5.40147	0.000567308	0.301391	317.077
574.5000	-5.85806	0.000588573	0.313182	318.124
574.0000	-6.28799	0.000587042	0.325295	319.177
573.5000	-6.9317	0.000607857	0.337497	320.254
573.0000	-7.34948	0.000602365	0.350071	321.417
572.5000	-8.16335	0.000573281	0.362089	322.537
572.0000	-8.86891	0.000567597	0.375852	323.84
571.5000	-9.46245	0.000563065	0.389725	325.136
571.0000	-9.93068	0.000570944	0.40505	326.523
570.5000	-10.532	0.000569618	0.42026	327.957
570.0000	-11.2783	0.000554629	0.434918	329.354
569.5000	-12.123	0.00057403	0.451065	330.842
569.0000	-13.1205	0.000584092	0.467217	332.331
568.5000	-14.0192	0.000608185	0.482329	333.787
568.0000	-14.5726	0.000614335	0.497754	335.309
567.5000	-15.2348	0.000641403	0.513398	336.85
567.0000	-15.8955	0.000637504	0.528897	338.343
566.5000	-16.5043	0.000605042	0.544072	339.79
566.0000	-17.0822	0.000635187	0.559184	341.234
565.5000	-17.2708	0.000627363	0.573769	342.664
565.0000	-17.5491	0.000664815	0.588156	344.043
564.5000	-17.893	0.000692444	0.602505	345.415
564.0000	-18.5032	0.000679635	0.615836	346.654
563.5000	-18.8334	0.000683864	0.628162	347.827
563.0000	-19.4216	0.000671585	0.640625	349.047
562.5000	-20.0218	0.000641761	0.652048	350.137
562.0000	-20.3322	0.000658179	0.663091	351.185
561.5000	-20.4406	0.000658711	0.674902	352.265
561.0000	-20.2269	0.000675438	0.685435	353.254
560.5000	-20.0188	0.000681432	0.695296	354.184
560.0000	-19.8906	0.000667366	0.704668	355.035
559.5000	-19.907	0.000634767	0.713433	355.775
559.0000	-19.3963	0.000618661	0.720772	356.388
558.5000	-19.2228	0.000618284	0.726837	356.903
558.0000	-18.8975	0.000604886	0.731661	357.295
557.5000	-18.415	0.000589496	0.736304	357.633
557.0000	-18.0693	0.00057496	0.740212	357.876
556.5000	-17.8168	0.000545413	0.74304	358.054
556.0000	-17.036	0.00055827	0.744673	358.158
555.5000	-16.4524	0.000574001	0.745947	358.185
555.0000	-15.858	0.000576607	0.746438	358.107
554.5000	-15.3051	0.00060152	0.746577	357.948
554.0000	-14.6548	0.000587937	0.745421	357.71
553.5000	-14.1186	0.000580633	0.743811	357.422
553.0000	-13.6499	0.000585354	0.741787	357.1
552.5000	-13.1846	0.000579564	0.73987	356.735
552.0000	-12.5746	0.000576254	0.737287	356.292
551.5000	-12.5335	0.000571304	0.734479	355.839
551.0000	-12.4439	0.000571028	0.730993	355.358
550.5000	-12.215	0.000554564	0.72729	354.836
550.0000	-12.015	0.000583458	0.723611	354.289
549.5000	-12.0018	0.000600738	0.720274	353.759
549.0000	-12.1163	0.000600675	0.716321	353.227
548.5000	-11.9584	0.000610084	0.712557	352.728
548.0000	-12.0955	0.000590591	0.709464	352.175
547.5000	-12.3085	0.000579345	0.706639	351.676
547.0000	-12.5046	0.000577101	0.704	351.176
546.5000	-12.4056	0.000598689	0.70154	350.762
546.0000	-12.2793	0.00058822	0.698568	350.368
545.5000	-12.1825	0.000598723	0.696964	350.007
545.0000	-12.553	0.0005978	0.695601	349.72
544.5000	-12.6633	0.000572136	0.69446	349.445
544.0000	-12.8462	0.000559879	0.693415	349.229
543.5000	-12.9612	0.000575773	0.692938	349.06
543.0000	-13.0447	0.000590977	0.693088	348.941
542.5000	-12.9184	0.000597654	0.693863	348.859
542.0000	-13.0546	0.000588731	0.694736	348.823
541.5000	-12.973	0.000593094	0.695923	348.84
541.0000	-13.0259	0.000571299	0.697352	348.907
540.5000	-13.2349	0.000582418	0.700128	349.041
540.0000	-13.2484	0.000591412	0.703291	349.202
539.5000	-13.6735	0.000579282	0.706719	349.444
539.0000	-13.4497	0.000582444	0.710369	349.748
538.5000	-13.5319	0.000572559	0.71459	350.092
538.0000	-13.8445	0.000596941	0.719476	350.462
537.5000	-14.2422	0.000624427	0.72497	350.91
537.0000	-14.4017	0.00062453	0.730749	351.412
536.5000	-14.5048	0.000625492	0.736715	351.919
536.0000	-14.8503	0.000626708	0.743593	352.506
535.5000	-14.8712	0.000625556	0.750489	353.105
535.0000	-15.1565	0.000620513	0.758164	353.77
534.5000	-15.8495	0.000597164	0.765719	354.436
534.0000	-16.0356	0.000599079	0.773803	355.164
533.5000	-16.1337	0.000618819	0.782067	355.936
533.0000	-16.247	0.000635314	0.790077	356.693
532.5000	-16.2316	0.000617561	0.798249	357.476
532.0000	-16.5752	0.000608617	0.807157	358.326
531.5000	-16.6512	0.000614929	0.816365	359.195
531.0000	-16.7636	0.00062948	0.8265	360.1
530.5000	-16.8877	0.00060478	0.836116	360.995
530.0000	-17.2105	0.000587567	0.846059	361.945
529.5000	-16.8593	0.000609641	0.855598	362.853
529.0000	-17.0312	0.000592982	0.864757	363.69
528.5000	-17.151	0.00059654	0.873821	364.543
528.0000	-17.0287	0.000597615	0.882511	365.359
527.5000	-16.791	0.000602697	0.891517	366.183
527.0000	-17.1842	0.000599823	0.901362	367.087
526.5000	-17.1932	0.000607662	0.910288	367.93
526.0000	-16.9468	0.000607714	0.919708	368.794
525.5000	-16.7907	0.000609998	0.928862	369.629
525.0000	-16.1315	0.000609812	0.937713	370.436
524.5000	-15.6972	0.000608114	0.945948	371.162
524.0000	-15.5429	0.00060739	0.953479	371.817
523.5000	-15.0741	0.00061985	0.960662	372.47
523.0000	-14.4001	0.000627501	0.967539	373.09
522.5000	-14.2093	0.000610464	0.973764	373.667
522.0000	-13.5737	0.000657423	0.980152	374.231
521.5000	-13.4441	0.000661741	0.986541	374.771
521.0000	-13.3738	0.000651007	0.992355	375.269
520.5000	-12.7289	0.000669953	0.997925	375.74
520.0000	-11.6356	0.000665218	1.00266	376.13
519.5000	-11.5205	0.000644267	1.00753	376.504
519.0000	-11.0604	0.000619678	1.01203	376.867
518.5000	-10.1305	0.000627242	1.01571	377.173
518.0000	-9.40258	0.000612733	1.0199	377.498
517.5000	-8.91583	0.000594578	1.02408	377.812
517.0000	-8.21336	0.000597652	1.02813	378.087
516.5000	-7.9897	0.000616013	1.03202	378.338
516.0000	-7.60292	0.000641381	1.03568	378.588
515.5000	-7.27763	0.000626639	1.03872	378.82
515.0000	-7.14373	0.000593435	1.0417	379.035
514.5000	-6.80931	0.000590268	1.04451	379.245
514.0000	-6.47514	0.000569691	1.04706	379.415
513.5000	-6.25104	0.000538115	1.04975	379.591
513.0000	-6.30067	0.000519338	1.05205	379.764
512.5000	-5.91023	0.000515626	1.05492	379.973
512.0000	-5.38949	0.000526793	1.05758	380.151
511.5000	-4.99985	0.000511291	1.05995	380.34
511.0000	-4.93461	0.000527926	1.06226	380.5
510.5000	-4.67056	0.00053588	1.06485	380.666
510.0000	-4.36305	0.000546429	1.0672	380.807
509.5000	-3.91854	0.000561364	1.06946	380.955
509.0000	-3.48739	0.000575438	1.07147	381.09
508.5000	-3.21823	0.000556159	1.07348	381.212
508.0000	-2.7786	0.00053732	1.07579	381.333
507.5000	-2.65598	0.00050291	1.07825	381.462
507.0000	-2.12213	0.000523649	1.0808	381.595
506.5000	-1.8215	0.000556942	1.08321	381.716
506.0000	-1.65939	0.000571703	1.08511	381.825
505.5000	-1.15634	0.000593342	1.08704	381.937
505.0000	-0.742752	0.000540715	1.08908	382.052
504.5000	-0.425821	0.000510467	1.09106	382.145
504.0000	0.0374244	0.000488805	1.09284	382.222
503.5000	0.0118442	0.000473961	1.0944	382.281
503.0000	0.206791	0.000451633	1.09604	382.329
502.5000	0.766898	0.00044902	1.09731	382.358
502.0000	0.869649	0.000480238	1.09848	382.382
501.5000	1.02926	0.000418865	1.09953	382.371
501.0000	0.855675	0.000396304	1.10038	382.324
500.5000	0.952682	0.000388476	1.1011	382.235
500.0000	1.2052	0.000379573	1.10151	382.091
499.5000	1.0684	0.00035857	1.10087	381.853
499.0000	1.60977	0.000386654	1.09973	381.479
498.5000	2.03989	0.000356494	1.09817	380.971
498.0000	2.40912	0.000342626	1.09641	380.345
497.5000	2.77063	0.000330868	1.09503	379.583
497.0000	3.18555	0.000359439	1.09449	378.817
496.5000	3.50255	0.000403694	1.09513	378.109
496.0000	3.87654	0.000397643	1.09741	377.646
495.5000	3.58324	0.000427259	1.09953	377.309
495.0000	3.84077	0.000420866	1.10025	377.046
494.5000	4.00318	0.000440006	1.09998	376.786
494.0000	4.43476	0.000425206	1.09928	376.526
493.5000	4.7057	0.000421623	1.09832	376.236
493.0000	5.11787	0.000407637	1.09749	375.975
492.5000	5.65654	0.000409483	1.09666	375.715
492.0000	6.08084	0.000381284	1.09558	375.443
491.5000	6.46927	0.000365503	1.09444	375.213
491.0000	6.77988	0.000391463	1.09341	374.995
490.5000	7.24715	0.000353625	1.09226	374.805
490.0000	7.67098	0.000330841	1.09088	374.644
489.5000	8.1016	0.000322791	1.08918	374.515
489.0000	8.36805	0.000314866	1.08676	374.332
488.5000	8.7239	0.000313883	1.08277	373.99
488.0000	9.01375	0.000304381	1.07709	373.379
487.5000	9.69373	0.00030616	1.07102	372.553
487.0000	10.3238	0.000311433	1.06622	371.658
486.5000	10.9812	0.000310218	1.0612	370.611
486.0000	11.2981	0.000310441	1.05678	369.578
485.5000	11.6396	0.000297027	1.05428	368.64
485.0000	12.0699	0.000325857	1.05271	367.807
484.5000	12.4233	0.000353291	1.05043	367.09
484.0000	12.9067	0.000371636	1.04715	366.406
483.5000	13.0434	0.000377697	1.0437	365.797
483.0000	13.6068	0.000381287	1.03943	365.185
482.5000	13.7686	0.000360569	1.03495	364.644
482.0000	13.6412	0.000360828	1.03015	364.129
481.5000	14.0384	0.000381509	1.02547	363.627
481.0000	14.3307	0.00034808	1.02091	363.145
480.5000	14.4839	0.000338324	1.01613	362.689
480.0000	14.5404	0.000350476	1.01073	362.209
479.5000	14.8787	0.000362654	1.0045	361.647
479.0000	14.9386	0.000332525	0.995471	360.811
478.5000	15.0215	0.000329176	0.986164	359.754
478.0000	15.1153	0.000314994	0.979361	358.603
477.5000	14.9601	0.000307228	0.977028	357.768
477.0000	15.2245	0.000327124	0.973922	357.04
476.5000	15.6045	0.000288169	0.96557	356.026
476.0000	15.8246	0.00028548	0.955709	354.787
475.5000	16.1067	0.000271871	0.945735	353.327
475.0000	15.9514	0.000252856	0.936011	351.679
474.5000	16.0125	0.000254283	0.927253	349.951
474.0000	16.0254	0.00026029	0.918897	348.086
473.5000	16.171	0.000265977	0.909908	345.979
473.0000	16.0037	0.000284103	0.901123	343.735
472.5000	15.9595	0.000310743	0.894834	341.529
472.0000	15.8499	0.000297863	0.892198	339.792
471.5000	15.8508	0.000295775	0.890396	338.422
471.0000	15.8854	0.000291005	0.888811	337.606
470.5000	15.7858	0.000298748	0.887295	337.107
470.0000	15.7791	0.000298129	0.884071	336.821
469.5000	15.8129	0.000328394	0.876159	336.357
469.0000	15.8443	0.000338558	0.862687	335.359
468.5000	15.4765	0.000340504	0.850719	334.104
468.0000	15.1957	0.000346387	0.842334	332.881
467.5000	14.9044	0.000351469	0.83656	331.897
467.0000	14.9979	0.00037063	0.832411	331.179
466.5000	14.8752	0.000383414	0.8288	330.688
466.0000	14.7713	0.000385991	0.824308	330.38
465.5000	14.9522	0.000411234	0.819396	330.287
465.0000	14.7657	0.00041329	0.813709	330.431
464.5000	14.7024	0.000404665	0.805144	330.591
464.0000	14.3786	0.000396531	0.792666	330.43
463.5000	14.4243	0.000408525	0.778343	329.871
463.0000	14.1514	0.000410951	0.765423	329.081
462.5000	14.1832	0.000424804	0.754956	328.214
462.0000	14.0473	0.000420337	0.746244	327.353
461.5000	13.8995	0.000414694	0.738581	326.624
461.0000	13.5999	0.000383526	0.731072	326.026
460.5000	13.4599	0.000398041	0.723117	325.541
460.0000	13.2781	0.000405464	0.715173	325.146
459.5000	13.2157	0.000400814	0.706301	324.751
459.0000	13.2633	0.000406707	0.69578	324.238
458.5000	13.1099	0.000387874	0.684546	323.612
458.0000	12.9933	0.00040445	0.672314	322.777
457.5000	12.6483	0.00041145	0.659925	321.717
457.0000	12.695	0.000397995	0.648958	320.564
456.5000	12.325	0.000407119	0.640349	319.522
456.0000	12.1819	0.000421054	0.630525	318.477
455.5000	12.2528	0.00044517	0.617739	317.168
455.0000	12.094	0.000451163	0.606565	315.835
454.5000	11.8893	0.000428168	0.598989	314.721
454.0000	11.6839	0.000420927	0.591906	313.833
453.5000	11.3887	0.000452164	0.582682	313.046
453.0000	11.136	0.000460301	0.572767	312.264
452.5000	10.8048	0.000475773	0.563032	311.455
452.0000	10.5467	0.000489662	0.553455	310.601
451.5000	10.4812	0.000508172	0.543369	309.703
451.0000	10.3851	0.000501864	0.533772	308.845
450.5000	9.86887	0.000495117	0.523816	307.937
450.0000	9.85942	0.00050534	0.51536	307.125
449.5000	9.64835	0.000508255	0.508511	306.504
449.0000	9.47784	0.000503962	0.501774	306.018
448.5000	9.19056	0.00050965	0.492302	305.422
448.0000	9.26165	0.000513872	0.482611	304.743
447.5000	9.12593	0.000519961	0.475901	304.217
447.0000	9.03822	0.000527673	0.471285	303.956
446.5000	8.86334	0.000541716	0.464672	303.728
446.0000	8.47277	0.00055012	0.453714	303.219
445.5000	8.24369	0.000553682	0.44312	302.471
445.0000	8.04119	0.000552786	0.434173	301.605
444.5000	7.95344	0.000558668	0.425781	300.715
444.0000	7.81216	0.00054724	0.417704	299.829
443.5000	7.65587	0.000549399	0.409723	298.886
443.0000	7.45859	0.000549966	0.403414	298.087
442.5000	7.21993	0.000560577	0.397348	297.321
442.0000	7.15559	0.000579365	0.391701	296.669
441.5000	6.88381	0.000575794	0.385153	295.964
441.0000	6.71282	0.000580774	0.378988	295.314
440.5000	6.39728	0.00058433	0.372974	294.681
440.0000	6.32958	0.000590964	0.366715	294.032
439.5000	6.26613	0.000591614	0.360146	293.36
439.0000	6.16671	0.000599154	0.35315	292.657
438.5000	6.07599	0.000596659	0.345742	291.937
438.0000	5.96023	0.000605844	0.338131	291.22
437.5000	6.06422	0.00059617	0.330987	290.537
437.0000	6.09753	0.000600711	0.323562	289.848
436.5000	6.13683	0.000602319	0.317844	289.284
436.0000	6.08381	0.000624356	0.312565	288.777
435.5000	6.09127	0.00064093	0.306722	288.284
435.0000	5.85106	0.00063871	0.300314	287.777
434.5000	5.69894	0.000636159	0.29382	287.265
434.0000	5.60468	0.000629993	0.287457	286.732
433.5000	5.34727	0.000630462	0.281505	286.208
433.0000	5.1842	0.000636528	0.275803	285.656
432.5000	5.24371	0.000639495	0.270351	285.122
432.0000	5.24653	0.000638421	0.264462	284.554
431.5000	5.09334	0.000634745	0.258696	283.987
431.0000	5.04008	0.000621234	0.253128	283.426
430.5000	4.58925	0.000629969	0.247757	282.871
430.0000	4.35274	0.000626271	0.242978	282.357
429.5000	4.2062	0.000633475	0.237847	281.817
429.0000	4.08131	0.000632092	0.232818	281.28
428.5000	4.02328	0.000631684	0.22767	280.743
428.0000	3.91462	0.000626227	0.222071	280.19
427.5000	3.68139	0.000597842	0.217406	279.701
427.0000	3.43727	0.000605503	0.212919	279.218
426.5000	3.40171	0.000598416	0.208516	278.734
426.0000	3.31241	0.000611741	0.203854	278.209
425.5000	3.33309	0.000608591	0.199337	277.658
425.0000	3.2534	0.000608239	0.194726	277.091
424.5000	3.15011	0.000605291	0.190195	276.498
424.0000	3.05038	0.000604528	0.186307	275.946
423.5000	2.92124	0.000606301	0.183132	275.461
423.0000	2.71929	0.000604811	0.179783	275.026
422.5000	2.56915	0.000602178	0.176144	274.623
422.0000	2.51308	0.0005994	0.172283	274.23
421.5000	2.55003	0.000577579	0.168423	273.845
421.0000	2.58134	0.000587072	0.165	273.496
420.5000	2.55876	0.000595546	0.161497	273.143
420.0000	2.5183	0.000596674	0.157991	272.775
419.5000	2.36152	0.000593375	0.154618	272.402
419.0000	2.38605	0.000591388	0.151379	272.051
418.5000	2.32662	0.000580238	0.14821	271.741
418.0000	2.04457	0.000579399	0.145292	271.432
417.5000	2.08672	0.000589973	0.142331	271.138
417.0000	1.86326	0.000572437	0.139823	270.87
416.5000	1.99663	0.000570532	0.137634	270.665
416.0000	1.91217	0.000571901	0.135071	270.491
415.5000	1.9217	0.000586375	0.131972	270.284
415.0000	1.73174	0.000580946	0.1288	270.035
414.5000	1.6371	0.000581167	0.1262	269.764
414.0000	1.64151	0.000595676	0.123997	269.486
413.5000	1.56307	0.000614338	0.122112	269.217
413.0000	1.34842	0.000611909	0.120402	268.978
412.5000	1.23422	0.000604562	0.118608	268.754
412.0000	1.18726	0.000610382	0.117006	268.557
411.5000	1.12309	0.000610857	0.114912	268.341
411.0000	1.11959	0.00061592	0.113099	268.152
410.5000	1.1516	0.000617751	0.111502	267.975
410.0000	1.17753	0.000625494	0.110108	267.816
409.5000	1.13886	0.000630537	0.109017	267.695
409.0000	1.13637	0.000624351	0.10783	267.584
408.5000	1.22222	0.00063969	0.10611	267.454
408.0000	1.19668	0.000648564	0.10436	267.335
407.5000	1.34743	0.000655895	0.102482	267.199
407.0000	1.32009	0.000637409	0.10082	267.055
406.5000	1.49039	0.000637754	0.0994768	266.925
406.0000	1.58027	0.000636927	0.0981183	266.789
405.5000	1.43749	0.000633688	0.0965023	266.637
405.0000	1.43549	0.000628862	0.0948552	266.46
404.5000	1.49188	0.000632485	0.0932261	266.265
404.0000	1.36316	0.000635853	0.0919977	266.05
403.5000	1.28138	0.000634298	0.0908698	265.821
403.0000	1.28172	0.000633983	0.0901925	265.588
402.5000	1.353	0.000633447	0.0890688	265.332
402.0000	1.20159	0.000636535	0.0884063	265.088
401.5000	1.33047	0.000640907	0.0879067	264.828
401.0000	1.23015	0.00063559	0.0873179	264.6
400.5000	1.1636	0.000634846	0.0867149	264.382
400.0000	1.06924	0.000641815	0.0861669	264.201
399.5000	0.976782	0.000630702	0.0861676	264.032
399.0000	0.818119	0.000636473	0.086243	263.902
398.5000	0.599427	0.000626765	0.0859374	263.773
398.0000	0.438303	0.000628485	0.0855521	263.662
397.5000	0.445654	0.000624679	0.0851294	263.573
397.0000	0.49869	0.000610091	0.0851925	263.521
396.5000	0.485787	0.000622191	0.0850201	263.497
396.0000	0.448433	0.000619815	0.0849442	263.498
395.5000	0.460315	0.000606375	0.0845046	263.525
395.0000	0.358	0.000607305	0.0842953	263.586
394.5000	0.349482	0.000595421	0.0843134	263.682
394.0000	0.351294	0.000602504	0.0845003	263.813
393.5000	0.360021	0.000612189	0.0841823	263.943
393.0000	0.230003	0.000595874	0.0835616	264.074
392.5000	0.346891	0.000612732	0.0832462	264.206
392.0000	0.289105	0.000608256	0.0831434	264.322
391.5000	0.294458	0.000611304	0.0832929	264.426
391.0000	0.301529	0.000599075	0.0833224	264.52
390.5000	0.367634	0.000597139	0.0830181	264.598
390.0000	0.392588	0.000610693	0.0829572	264.685
389.5000	0.362717	0.000620671	0.0831332	264.756
389.0000	0.273331	0.000620836	0.0835359	264.825
388.5000	0.336043	0.000618689	0.083564	264.877
388.0000	0.33614	0.00062335	0.0836485	264.941
387.5000	0.394932	0.000632169	0.0841288	265.007
387.0000	0.232949	0.000642386	0.0850165	265.066
386.5000	0.167866	0.000649787	0.0855433	265.103
386.0000	0.138261	0.000662467	0.0863167	265.146
385.5000	-0.0791472	0.000647603	0.0869159	265.169
385.0000	-0.10099	0.000651219	0.0875742	265.192
384.5000	-0.257492	0.000652981	0.0884965	265.236
384.0000	-0.408052	0.000660471	0.0894615	265.272
383.5000	-0.22988	0.000669166	0.0901909	265.31
383.0000	-0.0730422	0.000668217	0.0909142	265.359
382.5000	0.0025019	0.000679189	0.091611	265.4
382.0000	-0.089265	0.000688529	0.0927087	265.437
381.5000	-0.0862002	0.000674811	0.0939829	265.48
381.0000	-0.0918365	0.000687811	0.0950246	265.53
380.5000	-0.000547588	0.000686635	0.0959923	265.589
380.0000	-0.103321	0.000692295	0.09729	265.656
379.5000	-0.12639	0.000699684	0.098461	265.709
379.0000	-0.123192	0.000692476	0.0992623	265.761
378.5000	-0.148612	0.000691804	0.0997423	265.814
378.0000	-0.174968	0.000689745	0.100296	265.867
377.5000	-0.228238	0.000684173	0.100885	265.909
377.0000	-0.0569086	0.000695663	0.101377	265.944
376.5000	-0.0615061	0.000698201	0.102187	265.983
376.0000	0.0406467	0.000698419	0.102767	265.996
375.5000	0.0673584	0.000690863	0.103025	265.999
375.0000	-0.0258544	0.000679419	0.103416	266.003
374.5000	-0.29664	0.000679371	0.103735	265.995
374.0000	-0.351934	0.000679914	0.104163	265.992
373.5000	-0.358104	0.000680891	0.104581	265.997
373.0000	-0.376445	0.000664273	0.104573	265.984
372.5000	-0.282549	0.000663763	0.104755	265.981
372.0000	-0.259524	0.00066122	0.10489	265.967
371.5000	-0.1662	0.00065792	0.104947	265.956
371.0000	-0.134711	0.000646042	0.105303	265.955
370.5000	-0.0990694	0.00065793	0.105862	265.966
370.0000	-0.0346502	0.000659358	0.106291	265.98
369.5000	-0.0752966	0.000654781	0.106688	265.998
369.0000	0.0314068	0.000664086	0.107184	266.026
368.5000	-0.0765551	0.000677015	0.10789	266.066
368.0000	-0.0849232	0.000671417	0.108348	266.11
367.5000	-0.258248	0.00066849	0.109017	266.166
367.0000	-0.153829	0.000659659	0.109962	266.231
366.5000	-0.011672	0.000667858	0.110632	266.3
366.0000	-0.110217	0.000669613	0.111322	266.382
365.5000	-0.178453	0.000668489	0.111882	266.455
365.0000	-0.0732892	0.000671522	0.112244	266.521
364.5000	-0.067431	0.000677171	0.1129	266.594
364.0000	-0.0451185	0.000674326	0.113451	266.674
363.5000	-0.142459	0.000659522	0.114472	266.767
363.0000	-0.261546	0.000647985	0.115348	266.852
362.5000	-0.281851	0.000655049	0.116041	266.934
362.0000	-0.088852	0.000643305	0.116705	267.016
361.5000	-0.120031	0.000654213	0.117613	267.103
361.0000	-0.137754	0.000650853	0.118291	267.173
360.5000	-0.17701	0.000649018	0.118807	267.249
360.0000	-0.0816313	0.000645306	0.119295	267.313
359.5000	0.130031	0.000636718	0.119723	267.378
359.0000	0.155772	0.000629711	0.119885	267.441
358.5000	0.098507	0.000646948	0.120005	267.511
358.0000	0.0437345	0.000642714	0.120028	267.569
357.5000	0.146047	0.000645038	0.120191	267.64
357.0000	0.165694	0.0006406	0.120629	267.713
356.5000	0.127845	0.000639672	0.12127	267.776
356.0000	0.0156117	0.000636509	0.121546	267.838
355.5000	0.042838	0.000647403	0.121832	267.904
355.0000	0.155459	0.000649164	0.121932	267.963
354.5000	0.136772	0.000655702	0.122013	268.023
354.0000	0.13657	0.000649081	0.122228	268.084
353.5000	0.0174226	0.000658351	0.122319	268.134
353.0000	-0.00490925	0.000646584	0.122353	268.187
352.5000	-0.0424996	0.0006477	0.122573	268.254
352.0000	0.0885911	0.000632724	0.122798	268.32
351.5000	0.246534	0.000636555	0.123069	268.386
351.0000	0.0687788	0.000626797	0.123628	268.449
350.5000	0.0488256	0.00062653	0.124329	268.514
350.0000	0.058978	0.000616354	0.125019	268.575
349.5000	-0.00492206	0.000602369	0.125995	268.653
349.0000	-0.0835789	0.00059888	0.126846	268.713
348.5000	0.0136502	0.000595128	0.127877	268.781
348.0000	-0.0106392	0.000592954	0.128593	268.844
347.5000	-0.187615	0.00058977	0.129586	268.907
347.0000	-0.249575	0.000585134	0.130499	268.959
346.5000	-0.332875	0.000587371	0.131206	269.011
346.0000	-0.378783	0.000582606	0.131873	269.066
345.5000	-0.501378	0.000576016	0.132858	269.133
345.0000	-0.416606	0.000566778	0.133871	269.2
344.5000	-0.271115	0.000571365	0.134923	269.27
344.0000	-0.185354	0.00057353	0.13611	269.335
343.5000	-0.231852	0.000574734	0.13686	269.385
343.0000	-0.340148	0.000567456	0.137409	269.427
342.5000	-0.25264	0.000580449	0.138049	269.49
342.0000	-0.23822	0.00057552	0.138723	269.558
341.5000	-0.323315	0.000575977	0.139433	269.621
341.0000	-0.21795	0.000581126	0.140299	269.68
340.5000	-0.222065	0.000572236	0.140874	269.738
340.0000	-0.359621	0.000576341	0.14143	269.796
339.5000	-0.258206	0.000569886	0.141815	269.863
339.0000	-0.331061	0.000560383	0.14246	269.927
338.5000	-0.204012	0.000560705	0.143339	270.006
338.0000	-0.240551	0.000557688	0.144114	270.081
337.5000	-0.167045	0.00055597	0.144783	270.154
337.0000	-0.0959226	0.000555982	0.145419	270.233
336.5000	-0.306057	0.000550765	0.146172	270.304
336.0000	-0.122029	0.000537402	0.146915	270.386
335.5000	-0.0748359	0.000536496	0.147673	270.468
335.0000	-0.0824858	0.000537591	0.14859	270.563
334.5000	-0.0770477	0.000534328	0.149379	270.657
334.0000	0.0820842	0.000504071	0.150297	270.75
333.5000	0.269527	0.000496484	0.151522	270.84
333.0000	0.43611	0.000492724	0.152449	270.935
332.5000	0.340114	0.000472921	0.153046	271.026
332.0000	0.490954	0.000476809	0.153772	271.122
331.5000	0.62171	0.000470964	0.15473	271.219
331.0000	0.605974	0.000470013	0.155953	271.336
330.5000	0.682983	0.000460265	0.156828	271.442
330.0000	0.489499	0.000449911	0.157729	271.542
329.5000	0.533652	0.00045156	0.158778	271.656
329.0000	0.638665	0.000422327	0.15976	271.774
328.5000	0.717291	0.000425367	0.160743	271.88
328.0000	0.765183	0.000415957	0.161582	271.983
327.5000	0.496215	0.000409023	0.162526	272.078
327.0000	0.411382	0.000392505	0.163598	272.161
326.5000	0.502748	0.000382637	0.164964	272.268
326.0000	0.368133	0.000374187	0.166605	272.396
325.5000	0.180003	0.000377024	0.16796	272.52
325.0000	0.0344864	0.000374214	0.169082	272.652
324.5000	0.020209	0.00036779	0.170468	272.794
324.0000	0.0770376	0.000364538	0.17227	272.956
323.5000	0.080326	0.000350462	0.17417	273.117
323.0000	0.0251149	0.000338717	0.175657	273.266
322.5000	-0.160049	0.000329936	0.177108	273.416
322.0000	-0.240487	0.00032442	0.178508	273.573
321.5000	-0.0955077	0.000321968	0.180316	273.745
321.0000	-0.0362108	0.000305202	0.182229	273.923
320.5000	-0.117298	0.000289304	0.183986	274.082
320.0000	-0.0640365	0.000296671	0.185578	274.24
319.5000	-0.00398718	0.000288099	0.187377	274.416
319.0000	0.0242499	0.000298582	0.189036	274.604
318.5000	0.0142646	0.00028523	0.190713	274.802
318.0000	0.0321503	0.00027923	0.192157	274.975
317.5000	0.231337	0.000280371	0.193561	275.125
317.0000	0.364359	0.000275237	0.195362	275.285
316.5000	0.284273	0.000262391	0.197174	275.432
316.0000	0.31611	0.000250211	0.199077	275.59
315.5000	0.33606	0.000251727	0.200664	275.752
315.0000	0.274193	0.000252701	0.202472	275.946
314.5000	0.313683	0.000251385	0.204251	276.137
314.0000	0.540768	0.000252921	0.20612	276.326
313.5000	0.520116	0.000235967	0.207851	276.5
313.0000	0.774597	0.000236738	0.209783	276.703
312.5000	0.890993	0.000237029	0.211687	276.913
312.0000	0.832238	0.000239569	0.213827	277.127
311.5000	0.876664	0.000227846	0.21584	277.342
311.0000	1.01894	0.000223471	0.218233	277.569
310.5000	1.03862	0.000202821	0.220507	277.825
310.0000	1.11938	0.000198471	0.222995	278.079
309.5000	1.13509	0.000182379	0.22569	278.349
309.0000	1.15353	0.000163391	0.22866	278.652
308.5000	1.23383	0.000144028	0.231442	278.966
308.0000	1.35853	0.000149857	0.23417	279.27
307.5000	1.38962	0.000143608	0.237492	279.623
307.0000	1.45675	0.000142631	0.240874	279.962
306.5000	1.70622	0.000143218	0.244557	280.329
306.0000	2.03181	0.000138869	0.248573	280.713
305.5000	2.06657	0.000122036	0.252865	281.151
305.0000	2.07416	0.000115367	0.257251	281.586
304.5000	1.98297	0.000108212	0.262486	282.086
304.0000	1.91115	9.12528E-005	0.268008	282.605
303.5000	1.87505	7.59144E-005	0.27362	283.134
303.0000	1.939	6.86533E-005	0.279729	283.731
302.5000	2.04981	6.50868E-005	0.286054	284.355
302.0000	2.02312	5.42228E-005	0.292999	285.019
301.5000	2.19645	5.05613E-005	0.300208	285.704
301.0000	2.28363	5.82503E-005	0.307531	286.422
300.5000	2.46983	7.93198E-005	0.31426	287.085
300.0000	2.51447	7.29056E-005	0.322755	287.889
299.5000	2.60268	6.23219E-005	0.33072	288.656
299.0000	2.63677	6.8936E-005	0.338643	289.434
298.5000	2.64456	5.6222E-005	0.346689	290.238
298.0000	2.8085	5.02444E-005	0.354527	291.012
297.5000	2.7918	5.31731E-005	0.362649	291.809
297.0000	2.93852	5.60618E-005	0.370188	292.509
296.5000	2.9778	5.02667E-005	0.377404	293.198
296.0000	3.11188	5.94706E-005	0.384371	293.87
295.5000	3.31873	7.59462E-005	0.39125	294.507
295.0000	3.48523	8.42115E-005	0.39774	295.092
294.5000	3.29868	9.06765E-005	0.403968	295.666
294.0000	3.08693	8.06437E-005	0.410165	296.279
293.5000	3.25325	9.30999E-005	0.415036	296.779
293.0000	3.12171	0.000109141	0.420075	297.29
292.5000	3.30706	0.000102907	0.424811	297.794
292.0000	3.16662	0.000118735	0.428941	298.251
291.5000	3.25288	0.000120962	0.432906	298.681
291.0000	3.37379	0.000127108	0.43683	299.105
290.5000	3.30409	0.000118296	0.440787	299.527
290.0000	3.29308	0.000133132	0.44466	299.921
289.5000	3.08724	0.000140618	0.447788	300.273
289.0000	3.0056	0.000138112	0.450874	300.627
288.5000	2.84025	0.000142814	0.45417	301.014
288.0000	2.69796	0.000170264	0.45724	301.383
287.5000	2.66483	0.000180903	0.460524	301.784
287.0000	2.61451	0.000187811	0.463672	302.213
286.5000	2.76779	0.000198958	0.46637	302.619
286.0000	2.9271	0.000225748	0.469202	303.001
285.5000	3	0.000247747	0.47243	303.373
285.0000	2.88014	0.000253412	0.475875	303.771
284.5000	2.95956	0.000266129	0.479208	304.158
284.0000	2.95542	0.000288759	0.482724	304.564
283.5000	2.96011	0.00028836	0.486436	304.977
283.0000	2.87541	0.000299914	0.489954	305.376
282.5000	2.8407	0.000335176	0.493988	305.823
282.0000	3.0484	0.000373511	0.497905	306.292
281.5000	3.07067	0.000381054	0.501796	306.761
281.0000	3.07583	0.00040369	0.505826	307.225
280.5000	3.13363	0.000434273	0.510203	307.747
280.0000	3.43178	0.000469306	0.515072	308.316
279.5000	3.3572	0.000477515	0.520101	308.911
279.0000	3.48356	0.000497909	0.525048	309.507
278.5000	3.524	0.000526352	0.530788	310.177
278.0000	3.41244	0.000536416	0.537668	310.924
277.5000	3.54547	0.000548982	0.544329	311.647
277.0000	3.7169	0.000586878	0.551372	312.44
276.5000	3.99812	0.000630192	0.558835	313.291
276.0000	3.88162	0.000656519	0.566086	314.108
275.5000	4.13707	0.00067706	0.574973	315.074
275.0000	4.15203	0.000711933	0.584279	316.092
274.5000	4.2623	0.000738635	0.594065	317.181
274.0000	4.26771	0.000744939	0.604623	318.386
273.5000	4.00811	0.000765748	0.615155	319.55
273.0000	4.13954	0.000791028	0.626986	320.853
272.5000	4.18	0.000824101	0.639682	322.258
272.0000	4.38435	0.000870348	0.652875	323.736
271.5000	4.66102	0.000883765	0.667536	325.381
271.0000	4.9187	0.000909558	0.682667	327.047
270.5000	5.33719	0.000930592	0.698956	328.824
270.0000	5.83709	0.000948055	0.715641	330.685
269.5000	6.11846	0.000968982	0.733338	332.698
269.0000	6.15388	0.00100339	0.751075	334.708
268.5000	6.23758	0.0010184	0.771008	336.959
268.0000	6.30832	0.00103541	0.792123	339.341
267.5000	6.24549	0.00104938	0.814118	341.84
267.0000	6.46939	0.00108981	0.838088	344.612
266.5000	6.59049	0.00109364	0.862993	347.528
266.0000	6.7322	0.00114658	0.886774	350.276
265.5000	7.01473	0.0011725	0.912825	353.274
265.0000	7.50832	0.00120062	0.940393	356.514
264.5000	7.89759	0.00122539	0.966877	359.677
264.0000	7.68003	0.00122653	0.993504	362.882
263.5000	7.68257	0.00126715	1.02177	366.279
263.0000	7.61416	0.00129144	1.04727	369.372
262.5000	7.29597	0.00130335	1.07475	372.778
262.0000	7.29293	0.00131424	1.10044	376.037
261.5000	7.42117	0.00131336	1.12602	379.276
261.0000	7.6259	0.00131491	1.15037	382.333
260.5000	7.35988	0.00130476	1.17543	385.529
260.0000	7.5524	0.0012959	1.20001	388.71
259.5000	7.66129	0.00127182	1.22421	391.885
259.0000	7.44664	0.0012419	1.24797	395.059
258.5000	7.52473	0.00125444	1.27181	398.226
258.0000	7.37815	0.00124898	1.29565	401.417
257.5000	8.12285	0.00130892	1.3182	404.456
257.0000	7.82603	0.00131471	1.34192	407.678
256.5000	7.87823	0.00130691	1.3645	410.76
256.0000	8.01212	0.00125859	1.38854	414.038
255.5000	8.03275	0.00124232	1.41298	417.374
255.0000	7.46523	0.00114793	1.43756	420.762
254.5000	7.06478	0.0011396	1.46102	424.02
254.0000	7.07409	0.00108699	1.48468	427.316
253.5000	6.18958	0.00105327	1.51113	430.96
253.0000	6.06727	0.0010072	1.53461	434.25
252.5000	5.88499	0.0010059	1.56836	439.074
252.0000	5.99563	0.000983217	1.5957	443
251.5000	5.80592	0.00099434	1.61906	446.362
251.0000	5.36185	0.00100027	1.64203	449.643
250.5000	5.15796	0.000957492	1.66406	452.844
250.0000	5.21753	0.000957248	1.6839	455.773
249.5000	4.18566	0.000892419	1.70289	458.609
249.0000	3.48412	0.000776455	1.7221	461.491
248.5000	3.41705	0.000709666	1.7398	464.137
248.0000	2.50245	0.000707807	1.75762	466.831
247.5000	2.07425	0.000639393	1.77386	469.328
247.0000	2.35528	0.00060809	1.79029	471.89
246.5000	2.23826	0.000596272	1.80644	474.396
246.0000	1.56424	0.000610917	1.82257	476.887
245.5000	1.77269	0.000507201	1.8389	479.489
245.0000	1.97209	0.000443932	1.85549	482.137
244.5000	1.43426	0.000414169	1.87239	484.832
244.0000	1.33286	0.000313699	1.88963	487.617
243.5000	0.558699	0.00022254	1.90653	490.378
243.0000	0.275334	0.000132714	1.92399	493.275
242.5000	-0.487085	1.78772E-005	1.94432	496.671
242.0000	-0.968397	-0.000102439	1.96305	499.807
241.5000	-0.636618	-0.000162759	1.98514	503.517
241.0000	-0.86863	-0.00025052	2.0066	507.133
240.5000	-0.596391	-0.000297886	2.03177	511.457
240.0000	-0.599516	-0.000347384	2.05649	515.711
239.5000	-0.00279874	-0.000324714	2.08752	521.067
239.0000	-0.783933	-0.000382928	2.1167	526.094
238.5000	0.16347	-0.000464187	2.14971	531.824
238.0000	0.239304	-0.000673469	2.18674	538.349
237.5000	-1.72686	-0.000686958	2.22269	544.748
237.0000	-1.43962	-0.000741439	2.26302	551.983
236.5000	-2.16434	-0.000765981	2.30605	559.767
236.0000	-1.79955	-0.000904942	2.34916	567.63
235.5000	-2.30768	-0.00102951	2.40144	577.317
235.0000	-1.02817	-0.000994972	2.43873	584.306
234.5000	-0.566462	-0.0011763	2.4799	592.081
234.0000	-0.977664	-0.00123016	2.52519	600.709
233.5000	-2.28593	-0.00114084	2.57756	610.774
233.0000	-3.58477	-0.00107395	2.63447	621.864
232.5000	-2.41592	-0.00119905	2.69025	632.941
232.0000	-5.83303	-0.00135754	2.7565	646.346
231.5000	-4.16955	-0.00105324	2.81158	657.722
231.0000	-4.30644	-0.00116445	2.87352	670.735
230.5000	-3.22903	-0.000917347	2.93562	684.091
230.0000	-2.97438	-0.000583841	2.9939	696.949
229.5000	-1.73817	-0.00055608	3.05452	710.578
229.0000	-0.995926	-0.000412349	3.11338	724.138
228.5000	-3.69892	-0.000428673	3.17034	737.529
228.0000	-5.85033	-0.000198935	3.22218	750.009
227.5000	-3.39967	-0.000125656	3.27347	762.78
227.0000	-4.31024	-0.000124389	3.32153	775.086
226.5000	-2.80588	-0.000136482	3.36816	787.388
226.0000	-6.36505	0.000189565	3.40711	798.033
225.5000	-7.00147	0.000360547	3.44377	808.479
225.0000	-6.32398	0.000562493	3.47617	818.237
224.5000	-7.80501	0.000542376	3.50428	827.208
224.0000	-8.58503	0.000964082	3.52813	835.294
223.5000	-8.10332	0.00116161	3.54797	842.473
223.0000	-10.0489	0.000947976	3.56376	848.745
222.5000	-9.68933	0.000926584	3.57699	855.117
222.0000	-10.4196	0.000732117	3.58444	859.927
221.5000	-11.2923	0.000663301	3.58792	864.004
221.0000	-9.31417	0.000669798	3.58786	866.805
220.5000	-9.06253	0.00103711	3.58527	869.051
220.0000	-8.38404	0.000958948	3.58024	870.898

##### Extended Information
[Comments]
Sample name	JS187+JS190_5E-5_H2O_30-70
Comment
User
Division
Company	Labo systeme complexes hors equilibre

[Detailed Information]
Creation date	1/23/2024 12:31 PM

Data array type	Linear data array * 4
Horizontal axis	Wavelength [nm]
Vertical axis(1)	CD [mdeg]
Vertical axis(2)	LD [dOD]
Vertical axis(3)	Abs
Vertical axis(4)	HT [V]
Start	700 nm
End	220 nm
Data interval	0.5 nm
Data points	961     

[Measurement Information]
Instrument name	CD Jasco
Model name	J-1500
Serial No.	A005261638

Detector	PM-539
Detector S/N	A0052PM539
  Lock-in amp.	X mode
  HT volt	Auto

Detector	EXPML-535
Detector S/N	A0001
  Lock-in amp.	X mode
  HT volt	Auto

Measurement date	1/23/2024 12:30 PM

Overload detect	1
Photometric mode	CD, LD, Abs, HT
Measure range	700 - 220 nm
Data pitch	0.5 nm
CD scale	200 mdeg/1.0 dOD
FL scale	200 mdeg/1.0 dOD
D.I.T.	1 sec
Bandwidth	1.00 nm
Start mode	Immediately
Scanning speed	500 nm/min
Baseline correction	Baseline
Shutter control	Auto


