TITLE	JS187+JS190_5E-5_H2O_58-42
DATA TYPE	
ORIGIN	JASCO
OWNER	
DATE	24/01/23
TIME	10:51:58
SPECTROMETER/DATA SYSTEM	
LOCALE	1033
RESOLUTION	
DELTAX	-0.5
XUNITS	NANOMETERS
YUNITS	CD [mdeg]
Y2UNITS	LD [dOD]
Y3UNITS	ABSORBANCE
Y4UNITS	HT [V]
FIRSTX	  700.0000
LASTX	  220.0000
NPOINTS	     961
FIRSTY	     1.50453
MAXY	    13.98912
MINY	   -16.45676
XYDATA
700.0000	1.50453	-1.82457E-005	-0.0572646	298.908
699.5000	1.18921	-2.637E-005	-0.0583505	298.603
699.0000	1.0548	-2.59457E-005	-0.0596252	298.237
698.5000	1.11197	-2.13904E-005	-0.060487	297.826
698.0000	1.13921	-3.17166E-005	-0.0618069	297.373
697.5000	0.899761	-3.12171E-005	-0.0636008	296.901
697.0000	0.785832	-1.84306E-005	-0.0655566	296.396
696.5000	0.916779	-1.11182E-005	-0.0667428	295.881
696.0000	0.912037	3.20315E-006	-0.0670876	295.33
695.5000	1.06986	-2.04001E-005	-0.0672863	294.794
695.0000	0.815358	-3.94575E-005	-0.0667258	294.33
694.5000	0.766491	-3.78733E-005	-0.0661688	293.886
694.0000	1.03712	-2.00317E-005	-0.0643928	293.48
693.5000	0.964168	-1.55372E-005	-0.0622364	293.114
693.0000	0.87632	-2.63169E-005	-0.0594015	292.809
692.5000	0.753929	-2.6954E-005	-0.0565233	292.532
692.0000	0.717437	-1.41291E-005	-0.053695	292.289
691.5000	0.755718	-2.18304E-005	-0.0506967	292.072
691.0000	0.871321	-1.71507E-005	-0.0479466	291.85
690.5000	0.755605	-2.32638E-005	-0.0459396	291.663
690.0000	0.763115	-3.02126E-005	-0.044283	291.49
689.5000	0.657934	-3.19132E-005	-0.0422334	291.376
689.0000	0.573655	-3.53856E-005	-0.0391653	291.339
688.5000	0.606544	-3.70684E-005	-0.035721	291.416
688.0000	0.311306	-2.26047E-005	-0.0315503	291.587
687.5000	0.21805	-1.1162E-005	-0.0272056	291.822
687.0000	0.216467	-1.12837E-005	-0.023684	292.059
686.5000	0.161931	-4.33578E-005	-0.0208535	292.32
686.0000	0.117833	-4.79907E-005	-0.0196374	292.563
685.5000	0.179023	-5.50246E-005	-0.0195563	292.802
685.0000	0.0347033	-4.96695E-005	-0.0198813	293.038
684.5000	-0.0744911	-4.40292E-005	-0.0208819	293.255
684.0000	0.29775	-3.88004E-005	-0.0224353	293.457
683.5000	0.269176	-4.18365E-005	-0.0231747	293.697
683.0000	0.194552	-3.79431E-005	-0.0239687	293.945
682.5000	-0.0460995	-5.70412E-005	-0.0241712	294.203
682.0000	0.127338	-4.96057E-005	-0.0243247	294.504
681.5000	0.114821	-5.38444E-005	-0.0241741	294.786
681.0000	0.193615	-4.39554E-005	-0.0242431	295.06
680.5000	0.405199	-3.89287E-005	-0.0249147	295.254
680.0000	0.486991	-4.83304E-005	-0.0270468	295.38
679.5000	0.480173	-6.27663E-005	-0.0297518	295.446
679.0000	0.438074	-5.42644E-005	-0.0332899	295.48
678.5000	0.428207	-3.65726E-005	-0.0358207	295.475
678.0000	0.563249	-1.31281E-005	-0.0380854	295.455
677.5000	0.640725	-1.28034E-005	-0.0394293	295.432
677.0000	0.720264	2.68636E-006	-0.0399844	295.411
676.5000	0.775884	-1.12489E-005	-0.0397923	295.39
676.0000	0.711349	-1.8203E-006	-0.0393986	295.384
675.5000	0.740931	-4.83865E-006	-0.0390897	295.37
675.0000	0.786563	-1.6689E-005	-0.038536	295.365
674.5000	0.824267	-5.75544E-006	-0.0375686	295.368
674.0000	0.861161	1.27022E-005	-0.0365569	295.378
673.5000	0.770436	8.08242E-006	-0.0353522	295.406
673.0000	0.697809	2.03856E-005	-0.0350408	295.444
672.5000	0.528996	3.89964E-006	-0.0347814	295.487
672.0000	0.471669	2.83254E-005	-0.034306	295.528
671.5000	0.490357	4.93679E-005	-0.0333172	295.575
671.0000	0.311994	3.38613E-005	-0.0322266	295.634
670.5000	0.448116	4.02327E-005	-0.0310097	295.687
670.0000	0.412522	5.60567E-005	-0.0298735	295.755
669.5000	0.496959	5.86949E-005	-0.0292519	295.828
669.0000	0.605794	5.07597E-005	-0.0285912	295.904
668.5000	0.757787	4.32112E-005	-0.0278592	295.989
668.0000	0.861553	3.18904E-005	-0.0272839	296.092
667.5000	0.844621	3.04264E-005	-0.0268702	296.196
667.0000	0.666827	3.68779E-005	-0.0266951	296.304
666.5000	0.715588	3.3689E-005	-0.0264596	296.418
666.0000	0.775139	6.04565E-005	-0.026894	296.543
665.5000	0.689058	3.47992E-005	-0.0268892	296.67
665.0000	0.769464	4.18168E-005	-0.0259888	296.806
664.5000	1.04714	6.03509E-005	-0.0250839	296.913
664.0000	1.00704	3.68483E-005	-0.024831	297.024
663.5000	0.959276	1.54718E-005	-0.025614	297.13
663.0000	1.19737	1.77115E-005	-0.0257991	297.212
662.5000	1.20905	3.52795E-005	-0.026006	297.297
662.0000	1.24565	1.35731E-005	-0.0262558	297.374
661.5000	0.979528	8.7913E-006	-0.0260188	297.434
661.0000	0.680918	1.31429E-005	-0.0262844	297.473
660.5000	0.512987	2.14684E-005	-0.0265875	297.517
660.0000	0.676358	2.00158E-005	-0.0267947	297.535
659.5000	0.565927	1.87855E-005	-0.0274029	297.548
659.0000	0.688744	1.95411E-005	-0.0278788	297.536
658.5000	0.466449	2.69475E-005	-0.0281039	297.516
658.0000	0.200132	-7.27135E-006	-0.0281139	297.464
657.5000	0.543517	5.98741E-007	-0.02878	297.385
657.0000	0.53692	-2.59911E-006	-0.028581	297.285
656.5000	0.526521	-2.09634E-006	-0.0294836	297.165
656.0000	0.750856	1.06952E-005	-0.0302855	297.03
655.5000	0.800719	1.96082E-006	-0.0296903	296.877
655.0000	0.65003	1.34534E-005	-0.0296489	296.723
654.5000	0.777529	1.41655E-005	-0.0299313	296.587
654.0000	0.584823	1.92183E-005	-0.0295261	296.439
653.5000	0.607376	2.47647E-005	-0.0281646	296.323
653.0000	0.691537	1.46678E-005	-0.0264294	296.223
652.5000	0.923869	2.137E-005	-0.0246824	296.15
652.0000	1.13262	2.37692E-005	-0.0227526	296.103
651.5000	1.04445	2.74763E-005	-0.0203298	296.084
651.0000	0.934312	2.55378E-005	-0.0174111	296.096
650.5000	0.943228	3.79511E-005	-0.0151354	296.143
650.0000	1.42646	4.79254E-005	-0.0124377	296.215
649.5000	1.42804	5.00657E-005	-0.0102455	296.313
649.0000	1.31285	4.20545E-005	-0.00795333	296.421
648.5000	1.29275	2.9371E-005	-0.00642691	296.566
648.0000	1.51016	3.3348E-005	-0.00457779	296.731
647.5000	1.19198	3.78927E-005	-0.00289786	296.907
647.0000	1.13827	4.31113E-005	-0.0016581	297.113
646.5000	1.26552	3.00455E-005	-0.000688082	297.315
646.0000	1.24789	2.86203E-005	0.000933437	297.496
645.5000	1.16887	3.02624E-005	0.00170038	297.669
645.0000	1.28734	2.81273E-005	0.00119136	297.817
644.5000	1.28533	4.07314E-005	0.000909585	297.94
644.0000	1.17512	3.40153E-005	0.000759656	298.038
643.5000	1.0026	2.60533E-005	0.000149199	298.105
643.0000	1.25535	4.49176E-005	-0.000554534	298.134
642.5000	1.39083	3.33184E-005	-0.00116628	298.144
642.0000	1.47154	4.10987E-005	-0.00163358	298.131
641.5000	1.31199	3.80966E-005	-0.00217783	298.103
641.0000	1.15828	4.6279E-005	-0.00224274	298.074
640.5000	1.358	5.80867E-005	-0.00185757	298.037
640.0000	1.21499	6.09611E-005	-0.00132632	297.98
639.5000	1.18536	5.34925E-005	-0.000456365	297.914
639.0000	1.21626	6.33867E-005	9.63956E-005	297.833
638.5000	1.25255	4.60591E-005	0.00114814	297.746
638.0000	1.36666	6.42109E-005	0.00160512	297.657
637.5000	1.36048	8.08267E-005	0.00184746	297.564
637.0000	1.43882	8.55262E-005	0.00295831	297.47
636.5000	1.44515	7.64891E-005	0.0039083	297.389
636.0000	1.45575	5.50238E-005	0.00412905	297.306
635.5000	1.66151	6.98125E-005	0.00464649	297.243
635.0000	1.37704	5.64252E-005	0.00565681	297.19
634.5000	1.25359	3.69024E-005	0.00657862	297.143
634.0000	1.03796	4.55676E-005	0.00742734	297.1
633.5000	1.0349	3.19199E-005	0.00789111	297.06
633.0000	1.13766	3.00852E-005	0.00884612	297.019
632.5000	0.850712	2.53197E-005	0.00902589	296.966
632.0000	0.850939	3.43932E-005	0.00931811	296.924
631.5000	0.837149	3.68907E-005	0.00987711	296.88
631.0000	1.09725	5.25628E-005	0.0103788	296.835
630.5000	1.14966	4.14049E-005	0.010736	296.778
630.0000	1.19678	2.32547E-005	0.0111598	296.72
629.5000	1.3411	2.46435E-005	0.0118309	296.671
629.0000	1.10009	3.02225E-005	0.0122848	296.626
628.5000	1.05611	1.12483E-005	0.0127086	296.596
628.0000	1.08921	1.54652E-005	0.0131025	296.537
627.5000	0.879526	2.18472E-005	0.0138969	296.483
627.0000	0.790355	1.71344E-005	0.014137	296.426
626.5000	0.97858	2.27318E-005	0.0141169	296.374
626.0000	0.930208	1.7064E-005	0.0141757	296.32
625.5000	0.976005	1.6172E-005	0.014943	296.275
625.0000	0.966186	1.11834E-005	0.0158652	296.239
624.5000	1.09658	1.46473E-005	0.0168175	296.207
624.0000	1.16986	2.85431E-005	0.0176517	296.185
623.5000	1.07744	2.93864E-005	0.0185797	296.176
623.0000	0.794227	1.66446E-005	0.0195776	296.189
622.5000	0.699262	2.41188E-005	0.0207734	296.219
622.0000	0.634707	3.5966E-005	0.0217341	296.262
621.5000	0.59973	4.78141E-005	0.0226908	296.311
621.0000	0.684143	3.69611E-005	0.0237963	296.379
620.5000	0.749415	3.71932E-005	0.0244415	296.439
620.0000	0.575995	3.53495E-005	0.0248967	296.504
619.5000	0.651597	4.76512E-005	0.0258382	296.606
619.0000	0.750792	3.74401E-005	0.0272366	296.724
618.5000	0.715669	2.98728E-005	0.0289939	296.852
618.0000	0.555484	2.70156E-005	0.0308122	296.987
617.5000	0.842188	3.02061E-005	0.0315365	297.121
617.0000	0.719905	5.3055E-005	0.0321424	297.276
616.5000	0.782183	4.62953E-005	0.0326969	297.422
616.0000	0.858652	3.43915E-005	0.0335349	297.551
615.5000	0.994495	1.21748E-005	0.0340935	297.692
615.0000	1.19478	1.61947E-005	0.0344963	297.827
614.5000	1.35295	1.5556E-005	0.0346975	297.959
614.0000	1.26013	1.38572E-006	0.0349495	298.093
613.5000	1.3901	3.82543E-006	0.0353434	298.218
613.0000	1.27942	2.06448E-005	0.0356166	298.348
612.5000	1.15607	2.53226E-005	0.0361383	298.492
612.0000	1.49476	1.81096E-005	0.0366857	298.627
611.5000	1.46998	2.34836E-005	0.0373582	298.744
611.0000	1.5103	2.35302E-005	0.0376426	298.874
610.5000	1.81941	3.75881E-005	0.0378264	299.001
610.0000	1.88182	3.3243E-005	0.0377906	299.114
609.5000	1.72603	3.73132E-005	0.0383469	299.223
609.0000	1.5961	1.76211E-005	0.0387746	299.316
608.5000	1.59914	6.08162E-006	0.0396404	299.415
608.0000	1.47316	2.11183E-005	0.0400778	299.504
607.5000	1.37639	1.68369E-005	0.0399849	299.582
607.0000	1.53731	1.19329E-005	0.040477	299.68
606.5000	1.29935	1.62879E-005	0.041069	299.775
606.0000	1.42577	1.41817E-005	0.0423477	299.869
605.5000	1.25362	2.7421E-005	0.0432792	299.959
605.0000	1.24741	1.49794E-005	0.0444784	300.04
604.5000	1.30558	1.66579E-005	0.0453995	300.117
604.0000	1.05297	1.93065E-005	0.0466947	300.202
603.5000	0.841387	4.31693E-006	0.0481271	300.283
603.0000	1.03297	4.69415E-006	0.0490787	300.358
602.5000	0.947257	-1.3515E-006	0.0504464	300.427
602.0000	1.09632	4.76092E-006	0.0519554	300.493
601.5000	1.15804	9.49022E-006	0.0533344	300.559
601.0000	1.10479	1.63338E-005	0.0547333	300.626
600.5000	1.17371	3.69805E-005	0.0566352	300.688
600.0000	1.24568	4.55062E-005	0.058179	300.74
599.5000	1.12822	5.71764E-005	0.0607714	300.807
599.0000	1.03798	7.31897E-005	0.0627173	300.847
598.5000	0.956819	8.38225E-005	0.0653065	300.89
598.0000	1.03511	9.17332E-005	0.0673657	300.923
597.5000	0.862867	8.53645E-005	0.0693216	300.963
597.0000	0.93174	7.59625E-005	0.0717559	301.02
596.5000	0.867079	5.98887E-005	0.074242	301.058
596.0000	1.02276	0.000106679	0.0766753	301.085
595.5000	1.07052	9.62501E-005	0.0790416	301.121
595.0000	0.913766	0.0001077	0.0816494	301.142
594.5000	0.979665	0.000107642	0.0844784	301.184
594.0000	1.01937	0.000121906	0.0867656	301.226
593.5000	0.920174	0.00013737	0.0897953	301.284
593.0000	1.04829	0.000145475	0.0932467	301.35
592.5000	1.29526	0.000155104	0.0962195	301.437
592.0000	1.22194	0.000153021	0.0993629	301.561
591.5000	1.19872	0.000132502	0.101881	301.655
591.0000	1.21194	0.000144216	0.10511	301.772
590.5000	1.16813	0.000138128	0.108267	301.923
590.0000	1.2137	0.000150586	0.111608	302.082
589.5000	1.27762	0.000149106	0.115198	302.251
589.0000	1.25587	0.000175215	0.118738	302.419
588.5000	1.38546	0.00018679	0.122383	302.622
588.0000	1.51148	0.000174879	0.126507	302.856
587.5000	1.50271	0.000181337	0.130899	303.131
587.0000	1.72213	0.000175444	0.135253	303.44
586.5000	1.7083	0.000180951	0.139483	303.745
586.0000	1.56068	0.000200944	0.144441	304.07
585.5000	1.62979	0.000182273	0.149136	304.422
585.0000	1.5677	0.000179225	0.153867	304.793
584.5000	1.45758	0.000181058	0.158601	305.167
584.0000	1.42601	0.000195799	0.163963	305.576
583.5000	1.43989	0.000211963	0.169695	306.019
583.0000	1.35135	0.000214221	0.176337	306.529
582.5000	1.33259	0.000233731	0.182649	307.046
582.0000	1.30499	0.000245211	0.189187	307.583
581.5000	1.31411	0.000280098	0.196223	308.173
581.0000	1.28483	0.00029463	0.203874	308.798
580.5000	1.30646	0.000308272	0.211779	309.454
580.0000	1.47194	0.000321275	0.219474	310.11
579.5000	1.49646	0.000338372	0.227503	310.815
579.0000	1.4393	0.000365799	0.235782	311.533
578.5000	1.37639	0.000379092	0.244899	312.294
578.0000	1.34868	0.0004108	0.253962	313.081
577.5000	1.38065	0.000415999	0.263365	313.96
577.0000	1.41035	0.000454762	0.273601	314.837
576.5000	1.39025	0.000491717	0.284795	315.803
576.0000	1.45718	0.000507513	0.295924	316.772
575.5000	1.64924	0.000525299	0.307747	317.796
575.0000	1.70422	0.000570384	0.318454	318.77
574.5000	1.889	0.000597789	0.330578	319.855
574.0000	2.03038	0.000601144	0.343023	320.946
573.5000	2.13406	0.000632733	0.355673	322.072
573.0000	2.24217	0.000648657	0.368863	323.303
572.5000	2.41838	0.000668077	0.38148	324.489
572.0000	2.43389	0.00070202	0.395806	325.856
571.5000	2.55274	0.000726937	0.410097	327.201
571.0000	2.75672	0.000759819	0.425681	328.622
570.5000	3.2027	0.000804818	0.441413	330.117
570.0000	3.23082	0.000814855	0.456714	331.587
569.5000	3.14369	0.000837235	0.473343	333.134
569.0000	3.05569	0.000873666	0.490133	334.698
568.5000	3.02927	0.000896381	0.505703	336.21
568.0000	3.14871	0.000915305	0.521707	337.801
567.5000	3.04752	0.00092962	0.537896	339.409
567.0000	2.95507	0.000962181	0.553866	340.962
566.5000	3.18559	0.000963105	0.569774	342.495
566.0000	3.08441	0.000989488	0.585494	344.013
565.5000	3.31471	0.000998628	0.600602	345.508
565.0000	3.78009	0.00101484	0.615662	346.969
564.5000	3.60975	0.00102845	0.630579	348.411
564.0000	3.59868	0.00103583	0.644587	349.733
563.5000	3.24236	0.00104862	0.657671	350.995
563.0000	3.16364	0.0010321	0.6709	352.307
562.5000	2.76234	0.00105022	0.683046	353.485
562.0000	2.52134	0.00104771	0.694649	354.602
561.5000	2.00349	0.00102765	0.707128	355.764
561.0000	1.76469	0.001034	0.718525	356.855
560.5000	1.89694	0.0010499	0.728907	357.851
560.0000	1.93897	0.00103975	0.738893	358.776
559.5000	2.04339	0.0010267	0.748293	359.592
559.0000	2.20437	0.00103128	0.756271	360.281
558.5000	1.68209	0.00103298	0.762963	360.87
558.0000	1.66325	0.00103322	0.768486	361.343
557.5000	1.50856	0.00101508	0.773704	361.747
557.0000	0.922388	0.000989106	0.778261	362.065
556.5000	0.452201	0.000939742	0.781493	362.289
556.0000	0.409895	0.000905237	0.78346	362.431
555.5000	0.56101	0.000875766	0.785079	362.497
555.0000	0.635693	0.000866338	0.785884	362.453
554.5000	0.383005	0.00081831	0.78644	362.338
554.0000	0.918885	0.000820286	0.78569	362.143
553.5000	1.27867	0.000815619	0.78426	361.872
553.0000	1.30931	0.00080108	0.782424	361.567
552.5000	1.46981	0.000777834	0.780697	361.219
552.0000	1.6073	0.000730309	0.778353	360.798
551.5000	0.946514	0.000695283	0.775758	360.364
551.0000	0.848166	0.000676783	0.772425	359.894
550.5000	0.696215	0.000634423	0.76887	359.383
550.0000	0.716982	0.000626145	0.765282	358.84
549.5000	0.858801	0.000609297	0.761858	358.294
549.0000	0.992122	0.000591855	0.757857	357.752
548.5000	1.15302	0.000605135	0.753918	357.229
548.0000	1.13093	0.00059108	0.750853	356.672
547.5000	1.00548	0.000603599	0.747982	356.163
547.0000	1.20598	0.000608894	0.745246	355.647
546.5000	1.54841	0.000607845	0.742513	355.199
546.0000	1.26141	0.000601691	0.739478	354.795
545.5000	1.20065	0.000599356	0.737699	354.41
545.0000	1.37292	0.000615888	0.736178	354.103
544.5000	1.54496	0.00060852	0.734942	353.815
544.0000	1.43719	0.000606562	0.733783	353.584
543.5000	1.64737	0.00064821	0.733019	353.382
543.0000	1.95267	0.000670586	0.733018	353.246
542.5000	1.99345	0.000687526	0.733666	353.149
542.0000	2.20244	0.000699384	0.734514	353.11
541.5000	2.05219	0.000711155	0.735742	353.132
541.0000	1.97197	0.000703285	0.737231	353.206
540.5000	2.04886	0.000735587	0.73983	353.323
540.0000	2.12341	0.000766168	0.743007	353.486
539.5000	2.40902	0.00077952	0.746423	353.729
539.0000	2.44495	0.000780414	0.750169	354.047
538.5000	2.19934	0.000772569	0.754555	354.412
538.0000	2.19019	0.000799642	0.759515	354.795
537.5000	2.29793	0.000798375	0.765072	355.254
537.0000	1.97174	0.000799063	0.771057	355.784
536.5000	2.04239	0.000803879	0.77735	356.332
536.0000	1.96722	0.000821068	0.784521	356.957
535.5000	1.87888	0.000832608	0.791792	357.603
535.0000	1.63634	0.000828868	0.799942	358.327
534.5000	1.99517	0.000859198	0.807734	359.026
534.0000	2.3567	0.00086063	0.81615	359.799
533.5000	2.10681	0.000866971	0.824743	360.615
533.0000	2.14593	0.000874421	0.833059	361.415
532.5000	2.30727	0.000870495	0.841784	362.267
532.0000	1.98817	0.00086457	0.851151	363.178
531.5000	1.98166	0.000897233	0.86088	364.115
531.0000	2.0342	0.000895943	0.871721	365.109
530.5000	2.1109	0.000892942	0.881874	366.074
530.0000	1.81364	0.000896274	0.892388	367.099
529.5000	1.845	0.000915794	0.902585	368.092
529.0000	1.88645	0.000904506	0.912383	369.011
528.5000	1.69106	0.000906233	0.921994	369.936
528.0000	1.28056	0.000910921	0.931078	370.807
527.5000	1.36231	0.000900651	0.940713	371.712
527.0000	1.62272	0.00091646	0.951134	372.693
526.5000	1.79376	0.000903344	0.960658	373.614
526.0000	1.53182	0.000902679	0.970832	374.575
525.5000	1.39875	0.000886164	0.980733	375.506
525.0000	1.502	0.000860206	0.990108	376.384
524.5000	1.427	0.000851142	0.998876	377.181
524.0000	1.28162	0.000835595	1.00684	377.895
523.5000	1.39916	0.000811597	1.0148	378.647
523.0000	1.16576	0.000790688	1.02234	379.351
522.5000	0.733956	0.000758872	1.02913	380
522.0000	1.10821	0.000733198	1.03611	380.642
521.5000	1.0475	0.000720314	1.0431	381.258
521.0000	0.858475	0.000741624	1.04942	381.821
520.5000	0.442796	0.000720539	1.05547	382.356
520.0000	0.673184	0.000697065	1.06088	382.829
519.5000	1.03247	0.000725182	1.06638	383.282
519.0000	0.538031	0.000679233	1.07141	383.712
518.5000	0.509623	0.000645833	1.07565	384.088
518.0000	0.696395	0.000618153	1.08025	384.465
517.5000	0.725455	0.000602703	1.08467	384.813
517.0000	0.763072	0.000582463	1.08919	385.146
516.5000	0.44975	0.000540947	1.09375	385.479
516.0000	0.11715	0.000492918	1.09802	385.805
515.5000	0.128598	0.000484793	1.10168	386.113
515.0000	-0.151198	0.00042379	1.10491	386.36
514.5000	0.355804	0.00043123	1.10809	386.618
514.0000	0.184306	0.00040827	1.11102	386.834
513.5000	-0.0478357	0.000400055	1.11411	387.06
513.0000	0.459898	0.000392848	1.11694	387.299
512.5000	0.868661	0.000345825	1.1202	387.556
512.0000	1.10722	0.000327803	1.12324	387.782
511.5000	0.836027	0.000257894	1.12586	388.003
511.0000	1.22986	0.000241926	1.12854	388.21
510.5000	0.916005	0.000251743	1.13135	388.404
510.0000	0.869003	0.000241105	1.13421	388.608
509.5000	0.895206	0.000233081	1.13684	388.802
509.0000	1.17823	0.000181461	1.13928	388.989
508.5000	1.27256	0.000190598	1.1415	389.138
508.0000	1.6511	0.00020663	1.14388	389.269
507.5000	1.39133	0.000192536	1.14645	389.413
507.0000	1.55061	0.000226166	1.1491	389.56
506.5000	1.92795	0.000179466	1.15162	389.697
506.0000	1.93558	0.000183773	1.15376	389.837
505.5000	1.61114	0.000173912	1.15592	389.976
505.0000	2.0392	0.000104787	1.15808	390.107
504.5000	1.57746	5.50763E-005	1.16042	390.246
504.0000	1.93591	3.41641E-005	1.16228	390.333
503.5000	1.53759	1.72183E-005	1.16401	390.412
503.0000	1.57772	2.43635E-005	1.16573	390.471
502.5000	1.61349	1.88078E-005	1.16704	390.505
502.0000	1.77464	-1.96731E-005	1.16837	390.549
501.5000	1.07715	-6.8413E-005	1.16944	390.541
501.0000	0.77027	-7.4565E-005	1.17047	390.513
500.5000	0.821335	-8.42892E-005	1.17138	390.444
500.0000	0.815223	-0.000116508	1.17202	390.325
499.5000	0.373503	-0.000150087	1.17169	390.119
499.0000	0.383396	-0.000190487	1.17084	389.774
498.5000	0.436597	-0.000223766	1.1696	389.294
498.0000	0.335955	-0.000221409	1.16808	388.684
497.5000	0.375954	-0.000229886	1.16681	387.921
497.0000	0.221478	-0.000233936	1.16617	387.129
496.5000	-0.0379869	-0.000211795	1.16669	386.393
496.0000	-0.213164	-0.000232491	1.16856	385.876
495.5000	-0.129915	-0.000227501	1.17071	385.535
495.0000	-0.162249	-0.000243519	1.17135	385.258
494.5000	-0.324535	-0.000282419	1.17113	384.999
494.0000	-0.371721	-0.000291852	1.17041	384.732
493.5000	-0.333819	-0.000310258	1.16941	384.432
493.0000	-0.850831	-0.000324509	1.16848	384.154
492.5000	-1.02369	-0.000367061	1.16759	383.882
492.0000	-1.38518	-0.000391399	1.16634	383.586
491.5000	-1.623	-0.000402614	1.16506	383.336
491.0000	-1.99563	-0.000411666	1.16384	383.092
490.5000	-2.04661	-0.000421204	1.1625	382.876
490.0000	-2.20047	-0.000446413	1.16091	382.689
489.5000	-2.68524	-0.000520846	1.15916	382.55
489.0000	-3.2228	-0.000564008	1.15668	382.358
488.5000	-3.20034	-0.000612304	1.15295	382.04
488.0000	-3.24507	-0.000665213	1.14732	381.424
487.5000	-3.83963	-0.000705619	1.14127	380.585
487.0000	-4.36873	-0.00074619	1.13638	379.663
486.5000	-4.82978	-0.000766863	1.13121	378.579
486.0000	-5.10096	-0.000786943	1.12659	377.505
485.5000	-5.03883	-0.000812529	1.12371	376.507
485.0000	-4.79172	-0.000821132	1.12181	375.623
484.5000	-4.75791	-0.000833451	1.1192	374.855
484.0000	-5.16418	-0.000849725	1.11572	374.136
483.5000	-5.28081	-0.00089595	1.112	373.486
483.0000	-5.64422	-0.000923073	1.10739	372.824
482.5000	-5.69946	-0.000934204	1.10274	372.254
482.0000	-5.81525	-0.000953998	1.0978	371.715
481.5000	-6.17123	-0.000922937	1.0928	371.168
481.0000	-5.94826	-0.000913906	1.08785	370.634
480.5000	-6.17994	-0.000902491	1.08278	370.136
480.0000	-6.65323	-0.000904366	1.07709	369.615
479.5000	-6.76239	-0.000914888	1.07078	369.034
479.0000	-6.28952	-0.000904808	1.06184	368.194
478.5000	-6.30226	-0.00091217	1.05247	367.113
478.0000	-6.25529	-0.000932272	1.04532	365.904
477.5000	-6.18597	-0.000927158	1.04243	364.992
477.0000	-6.50562	-0.000936377	1.03913	364.23
476.5000	-6.54643	-0.000973539	1.0308	363.2
476.0000	-6.57386	-0.000979205	1.02088	361.935
475.5000	-6.43187	-0.000996755	1.01062	360.418
475.0000	-6.09059	-0.000968369	1.00062	358.713
474.5000	-5.98228	-0.000994414	0.991766	356.945
474.0000	-5.98237	-0.000993008	0.983276	355.035
473.5000	-6.08044	-0.00100528	0.973921	352.852
473.0000	-6.04104	-0.00102232	0.96488	350.544
472.5000	-6.09343	-0.00103333	0.957856	348.223
472.0000	-5.86271	-0.00100474	0.954385	346.368
471.5000	-6.19914	-0.00099756	0.951672	344.879
471.0000	-6.20374	-0.000973557	0.949376	343.975
470.5000	-6.39938	-0.000955843	0.947134	343.391
470.0000	-6.34861	-0.000943388	0.943615	343.069
469.5000	-6.24233	-0.00092588	0.93557	342.584
469.0000	-6.42898	-0.000918107	0.921996	341.56
468.5000	-6.43778	-0.000912551	0.909535	340.234
468.0000	-6.55654	-0.000886052	0.900503	338.925
467.5000	-6.98182	-0.000875087	0.894115	337.861
467.0000	-7.13264	-0.000873504	0.889342	337.067
466.5000	-7.0829	-0.000837669	0.884885	336.481
466.0000	-7.2372	-0.000823648	0.879504	336.076
465.5000	-7.22182	-0.000814189	0.87366	335.885
465.0000	-7.14746	-0.00079019	0.867101	335.94
464.5000	-7.09297	-0.000758695	0.858069	336.054
464.0000	-7.05462	-0.000758245	0.845533	335.885
463.5000	-6.70599	-0.000765661	0.831125	335.31
463.0000	-6.64832	-0.000757747	0.817594	334.445
462.5000	-6.59866	-0.000729418	0.806415	333.492
462.0000	-6.66652	-0.000717982	0.796818	332.53
461.5000	-6.536	-0.000702013	0.788408	331.714
461.0000	-6.46731	-0.000702315	0.780163	331.032
460.5000	-6.49781	-0.000683364	0.771377	330.456
460.0000	-6.2639	-0.0006669	0.762635	329.974
459.5000	-6.29151	-0.000672379	0.753231	329.52
459.0000	-5.96955	-0.00064767	0.742004	328.929
458.5000	-5.97846	-0.000640395	0.730379	328.255
458.0000	-5.85469	-0.0006395	0.717887	327.383
457.5000	-5.99571	-0.000629646	0.705398	326.301
457.0000	-6.06155	-0.000610598	0.693767	325.068
456.5000	-6.16005	-0.000597046	0.684434	323.94
456.0000	-5.90771	-0.000591742	0.673889	322.811
455.5000	-6.20029	-0.000571528	0.660546	321.431
455.0000	-6.27701	-0.000538726	0.6487	320.016
454.5000	-6.45712	-0.000520813	0.640293	318.807
454.0000	-6.31021	-0.000507843	0.63244	317.833
453.5000	-6.27664	-0.000479931	0.622606	316.977
453.0000	-6.33357	-0.000466937	0.612157	316.134
452.5000	-6.22949	-0.000429273	0.601816	315.257
452.0000	-6.25408	-0.000407778	0.591796	314.351
451.5000	-5.94154	-0.000382127	0.581087	313.383
451.0000	-5.76246	-0.000355104	0.571034	312.471
450.5000	-5.71307	-0.000339112	0.560553	311.504
450.0000	-5.69489	-0.000315297	0.551391	310.615
449.5000	-5.67254	-0.000294124	0.543673	309.904
449.0000	-5.40538	-0.000282222	0.536221	309.344
448.5000	-5.26903	-0.000259137	0.526367	308.705
448.0000	-5.14487	-0.000236615	0.516103	307.965
447.5000	-4.97172	-0.000217004	0.508645	307.363
447.0000	-4.87444	-0.000218203	0.503289	307.027
446.5000	-4.76392	-0.000199381	0.496236	306.755
446.0000	-4.77907	-0.000192452	0.484908	306.206
445.5000	-4.66437	-0.000182727	0.473829	305.406
445.0000	-4.75576	-0.000171027	0.464469	304.493
444.5000	-4.80473	-0.000178108	0.455598	303.551
444.0000	-4.55677	-0.000176508	0.44703	302.611
443.5000	-4.7082	-0.000167784	0.43854	301.612
443.0000	-4.75653	-0.000129923	0.431452	300.734
442.5000	-4.77146	-0.000112988	0.424809	299.907
442.0000	-4.48456	-8.66637E-005	0.418729	299.209
441.5000	-4.43906	-7.49114E-005	0.411663	298.451
441.0000	-4.41883	-5.0872E-005	0.405125	297.761
440.5000	-4.32846	-3.02646E-005	0.398722	297.088
440.0000	-4.38415	-1.91544E-005	0.392142	296.403
439.5000	-4.21467	-5.9387E-006	0.385266	295.699
439.0000	-4.14357	3.81918E-006	0.377708	294.938
438.5000	-4.07117	1.34063E-005	0.369754	294.163
438.0000	-3.91383	3.66113E-005	0.361984	293.427
437.5000	-3.75001	4.04884E-005	0.354606	292.718
437.0000	-3.40018	5.13963E-005	0.346811	291.99
436.5000	-3.17773	7.61225E-005	0.340698	291.386
436.0000	-3.1135	0.000106236	0.334938	290.832
435.5000	-3.09365	0.000123791	0.328635	290.294
435.0000	-2.97497	0.000135862	0.321992	289.762
434.5000	-2.94346	0.000144515	0.31527	289.226
434.0000	-2.97474	0.000137918	0.308682	288.67
433.5000	-2.91721	0.000158171	0.3025	288.122
433.0000	-2.87671	0.000162501	0.29637	287.528
432.5000	-2.81529	0.000169887	0.290506	286.953
432.0000	-2.55937	0.000174742	0.284177	286.342
431.5000	-2.58603	0.000172276	0.278004	285.735
431.0000	-2.36865	0.000187571	0.272178	285.148
430.5000	-2.25042	0.000217371	0.266432	284.557
430.0000	-2.21237	0.000221858	0.261158	283.995
429.5000	-2.25926	0.000233084	0.25558	283.412
429.0000	-2.28059	0.000255372	0.250069	282.83
428.5000	-2.19054	0.000278816	0.24451	282.252
428.0000	-2.22074	0.000275464	0.238485	281.659
427.5000	-2.17083	0.00027172	0.23347	281.137
427.0000	-2.16559	0.00027133	0.228555	280.613
426.5000	-2.1805	0.00026424	0.223714	280.089
426.0000	-2.14614	0.000267008	0.21866	279.526
425.5000	-1.91226	0.000276879	0.213731	278.937
425.0000	-1.9279	0.000283661	0.208744	278.333
424.5000	-1.74677	0.00029693	0.203876	277.709
424.0000	-1.69969	0.000288998	0.199643	277.124
423.5000	-1.73474	0.000301452	0.196187	276.613
423.0000	-1.84446	0.000309038	0.192277	276.126
422.5000	-1.97823	0.000309489	0.188394	275.701
422.0000	-2.04409	0.000312949	0.184268	275.283
421.5000	-1.97444	0.000317087	0.18014	274.874
421.0000	-1.73235	0.00031872	0.176504	274.504
420.5000	-1.58795	0.000320262	0.172664	274.121
420.0000	-1.51052	0.000321136	0.168982	273.737
419.5000	-1.46682	0.000332936	0.165355	273.34
419.0000	-1.4549	0.000341288	0.161868	272.966
418.5000	-1.32106	0.000337978	0.158441	272.633
418.0000	-1.34378	0.000351387	0.155429	272.315
417.5000	-1.46613	0.000354581	0.152318	272.007
417.0000	-1.52247	0.000353493	0.149655	271.725
416.5000	-1.42419	0.000341996	0.147318	271.507
416.0000	-1.39259	0.000343343	0.144632	271.321
415.5000	-1.41479	0.000353976	0.14143	271.105
415.0000	-1.35818	0.000349578	0.138202	270.851
414.5000	-1.13931	0.000354823	0.135421	270.563
414.0000	-1.13121	0.000365083	0.133142	270.277
413.5000	-1.14957	0.000376694	0.131109	269.996
413.0000	-1.22297	0.000377771	0.129107	269.73
412.5000	-1.32955	0.000377263	0.127192	269.496
412.0000	-1.22915	0.00037478	0.125516	269.292
411.5000	-1.11873	0.000373924	0.123417	269.074
411.0000	-1.05089	0.000365014	0.121549	268.88
410.5000	-1.05482	0.000363582	0.119985	268.706
410.0000	-1.00193	0.000368644	0.118561	268.544
409.5000	-0.954264	0.000374271	0.117138	268.394
409.0000	-0.829252	0.000377463	0.115692	268.26
408.5000	-0.784058	0.000376826	0.113832	268.118
408.0000	-0.805736	0.000375859	0.111952	267.988
407.5000	-0.577127	0.000375923	0.10996	267.841
407.0000	-0.459477	0.000367955	0.108205	267.69
406.5000	-0.462198	0.000375712	0.106718	267.546
406.0000	-0.348533	0.000379874	0.105095	267.388
405.5000	-0.334885	0.000371333	0.103336	267.223
405.0000	-0.155049	0.000377372	0.101606	267.038
404.5000	-0.0977188	0.00037283	0.100168	266.859
404.0000	-0.058937	0.00037658	0.0988813	266.64
403.5000	-0.148463	0.000381909	0.0975143	266.389
403.0000	-0.12297	0.000380132	0.0966132	266.137
402.5000	-0.0727637	0.000396743	0.0953878	265.872
402.0000	-0.108935	0.000397672	0.0946135	265.618
401.5000	-0.0503944	0.000397979	0.0940968	265.356
401.0000	-0.0320154	0.000401173	0.0932699	265.107
400.5000	0.0213532	0.000417011	0.0925898	264.882
400.0000	0.0233439	0.000419954	0.0919885	264.696
399.5000	0.0292443	0.000423401	0.0918799	264.518
399.0000	-0.148464	0.000430088	0.0919026	264.384
398.5000	-0.239016	0.000426974	0.0914558	264.242
398.0000	-0.22889	0.000418852	0.0910596	264.13
397.5000	-0.42529	0.000412555	0.0906551	264.042
397.0000	-0.355018	0.000405612	0.0906506	263.985
396.5000	-0.471185	0.000393618	0.0904132	263.955
396.0000	-0.494332	0.00039429	0.0902152	263.946
395.5000	-0.557551	0.000397297	0.0896308	263.96
395.0000	-0.648679	0.000393253	0.0893973	264.02
394.5000	-0.535254	0.000392322	0.0893636	264.111
394.0000	-0.623609	0.000393082	0.0893863	264.229
393.5000	-0.702967	0.000396293	0.0890049	264.354
393.0000	-0.698974	0.00038606	0.0885465	264.498
392.5000	-0.729371	0.000400553	0.0883807	264.643
392.0000	-0.777918	0.000390091	0.0884026	264.77
391.5000	-0.78196	0.000403446	0.0883942	264.86
391.0000	-0.784308	0.000401697	0.0884069	264.954
390.5000	-0.640077	0.000405292	0.0881822	265.038
390.0000	-0.733198	0.000420023	0.0879795	265.113
389.5000	-0.580239	0.000433855	0.0883095	265.197
389.0000	-0.460014	0.000439442	0.0888425	265.277
388.5000	-0.51337	0.000450469	0.0890454	265.345
388.0000	-0.502877	0.000459264	0.0891999	265.414
387.5000	-0.534334	0.000465284	0.0896555	265.479
387.0000	-0.5949	0.000476905	0.0905748	265.54
386.5000	-0.612936	0.000481678	0.0911806	265.584
386.0000	-0.674288	0.000486925	0.0919478	265.627
385.5000	-0.717429	0.000472703	0.0927146	265.665
385.0000	-0.714675	0.000479645	0.0934754	265.696
384.5000	-0.812655	0.000477878	0.0943934	265.739
384.0000	-0.71081	0.000484989	0.0952483	265.766
383.5000	-0.552315	0.000504634	0.095934	265.801
383.0000	-0.482897	0.000500769	0.0965682	265.843
382.5000	-0.2877	0.000503704	0.0973421	265.89
382.0000	-0.390503	0.000506983	0.0985679	265.938
381.5000	-0.41147	0.000496133	0.100034	265.997
381.0000	-0.557214	0.000511514	0.101039	266.044
380.5000	-0.544304	0.000505407	0.101927	266.096
380.0000	-0.429161	0.000510695	0.103014	266.145
379.5000	-0.384005	0.000513087	0.104263	266.205
379.0000	-0.387943	0.000507998	0.105098	266.261
378.5000	-0.337031	0.000510327	0.105667	266.32
378.0000	-0.33382	0.000511698	0.10631	266.381
377.5000	-0.149086	0.000515559	0.106999	266.432
377.0000	0.0238842	0.000529717	0.107494	266.467
376.5000	0.177282	0.000535232	0.108299	266.507
376.0000	0.2147	0.000523133	0.108891	266.521
375.5000	0.19344	0.000525351	0.109357	266.541
375.0000	0.187591	0.000520468	0.109824	266.552
374.5000	0.0119681	0.000514747	0.110202	266.549
374.0000	-0.120762	0.000519971	0.110561	266.54
373.5000	-0.0712422	0.000522895	0.110947	266.542
373.0000	-0.0623414	0.000514292	0.110953	266.53
372.5000	0.102986	0.000513607	0.111232	266.535
372.0000	0.22609	0.000521837	0.111434	266.528
371.5000	0.170342	0.000521508	0.111631	266.528
371.0000	0.128298	0.000519419	0.11197	266.526
370.5000	0.265052	0.000527576	0.112547	266.539
370.0000	0.181581	0.000522264	0.112813	266.539
369.5000	0.201112	0.000508838	0.113111	266.548
369.0000	0.164168	0.000514977	0.113461	266.563
368.5000	0.10832	0.000516819	0.11422	266.608
368.0000	0.0426177	0.000516348	0.114582	266.644
367.5000	-0.107961	0.000527829	0.115155	266.692
367.0000	-0.0570764	0.000516805	0.116075	266.755
366.5000	-0.100971	0.000512406	0.116704	266.821
366.0000	-0.182472	0.000508247	0.117358	266.9
365.5000	-0.208612	0.000509503	0.117932	266.973
365.0000	-0.155495	0.000507148	0.118248	267.036
364.5000	-0.340374	0.000503416	0.119017	267.118
364.0000	-0.331697	0.000494345	0.119507	267.193
363.5000	-0.423609	0.00048958	0.120313	267.268
363.0000	-0.333815	0.000479339	0.121149	267.35
362.5000	-0.245772	0.000478527	0.121748	267.424
362.0000	-0.0983793	0.000471241	0.122362	267.502
361.5000	-0.0162852	0.000484555	0.123223	267.585
361.0000	-0.112281	0.000498409	0.12408	267.671
360.5000	-0.18804	0.000490937	0.124688	267.754
360.0000	-0.164399	0.000487547	0.125358	267.834
359.5000	0.0156148	0.000487336	0.125855	267.906
359.0000	0.0516667	0.000480445	0.126039	267.971
358.5000	0.0660126	0.00048072	0.126118	268.037
358.0000	0.195849	0.000483766	0.1262	268.1
357.5000	0.317648	0.000476533	0.126332	268.168
357.0000	0.353827	0.000464282	0.126697	268.235
356.5000	0.51085	0.000471558	0.127385	268.302
356.0000	0.629436	0.000464956	0.127441	268.346
355.5000	0.701339	0.000469786	0.127635	268.403
355.0000	0.867051	0.000468942	0.12771	268.461
354.5000	0.769765	0.000473199	0.1277	268.513
354.0000	0.615811	0.000473172	0.128004	268.582
353.5000	0.663882	0.000471371	0.128342	268.653
353.0000	0.66681	0.000458742	0.128601	268.726
352.5000	0.551293	0.000441456	0.128786	268.789
352.0000	0.734434	0.000433771	0.129012	268.856
351.5000	0.783572	0.000427104	0.129114	268.908
351.0000	0.831813	0.000423853	0.129702	268.973
350.5000	0.82585	0.000402492	0.130372	269.036
350.0000	0.836796	0.000407879	0.131255	269.113
349.5000	0.812738	0.000402033	0.132215	269.19
349.0000	0.812867	0.000403324	0.133248	269.266
348.5000	0.925303	0.000415626	0.134272	269.333
348.0000	0.851767	0.000418936	0.134883	269.387
347.5000	0.748278	0.000424533	0.135884	269.451
347.0000	0.706571	0.000415079	0.136977	269.519
346.5000	0.583909	0.000400365	0.137906	269.59
346.0000	0.698177	0.000398118	0.138713	269.657
345.5000	0.641657	0.000377404	0.139563	269.713
345.0000	0.67964	0.000371049	0.14051	269.774
344.5000	0.798894	0.000380204	0.141384	269.828
344.0000	0.743735	0.000368306	0.142496	269.887
343.5000	0.633343	0.000354301	0.143374	269.949
343.0000	0.66248	0.000351264	0.143997	269.997
342.5000	0.681213	0.000358598	0.14463	270.059
342.0000	0.653891	0.000366985	0.145291	270.127
341.5000	0.675163	0.000358964	0.145914	270.182
341.0000	0.676242	0.000356698	0.146598	270.225
340.5000	0.656669	0.000346702	0.147047	270.272
340.0000	0.658265	0.000337521	0.147693	270.339
339.5000	0.621441	0.00032507	0.148174	270.413
339.0000	0.807576	0.000312333	0.148974	270.492
338.5000	1.01484	0.00031682	0.149799	270.566
338.0000	1.02301	0.000320558	0.150573	270.641
337.5000	0.999137	0.000335966	0.151347	270.723
337.0000	1.05311	0.000326671	0.152127	270.815
336.5000	0.997899	0.000317585	0.152981	270.895
336.0000	1.35342	0.000318521	0.153776	270.981
335.5000	1.35995	0.000320361	0.154473	271.058
335.0000	1.39517	0.000316294	0.155211	271.138
334.5000	1.36199	0.000302607	0.15604	271.235
334.0000	1.48451	0.000286191	0.157011	271.334
333.5000	1.5443	0.000275481	0.158309	271.43
333.0000	1.62824	0.000261181	0.159387	271.538
332.5000	1.56689	0.000261046	0.160068	271.637
332.0000	1.67123	0.000263898	0.16079	271.732
331.5000	1.70155	0.000258846	0.161796	271.834
331.0000	1.74049	0.000262607	0.162965	271.946
330.5000	1.62353	0.000263612	0.163874	272.055
330.0000	1.37462	0.000250784	0.164834	272.161
329.5000	1.24357	0.00023322	0.165922	272.278
329.0000	1.33009	0.000198567	0.166864	272.393
328.5000	1.28046	0.000194863	0.167829	272.498
328.0000	1.22423	0.000184852	0.168631	272.598
327.5000	0.960337	0.000170267	0.169682	272.703
327.0000	0.976034	0.000151961	0.170884	272.797
326.5000	0.981238	0.000150771	0.172422	272.919
326.0000	0.928222	0.000139436	0.174071	273.048
325.5000	0.790978	0.000133378	0.17541	273.17
325.0000	0.672932	0.000116905	0.17641	273.292
324.5000	0.803946	0.000106083	0.177713	273.427
324.0000	0.914263	8.12702E-005	0.179484	273.587
323.5000	0.848812	6.25483E-005	0.181336	273.745
323.0000	0.737993	3.93784E-005	0.183122	273.92
322.5000	0.581357	1.41005E-005	0.184594	274.072
322.0000	0.579563	1.28217E-005	0.185973	274.227
321.5000	0.834975	-7.20628E-007	0.187654	274.388
321.0000	1.00742	-4.61168E-006	0.189404	274.552
320.5000	1.07949	-1.04688E-005	0.191281	274.722
320.0000	1.09496	-7.18927E-006	0.192957	274.888
319.5000	1.15566	-2.21294E-005	0.194703	275.06
319.0000	1.19647	-1.6411E-005	0.196431	275.254
318.5000	1.19178	-3.31296E-005	0.198018	275.445
318.0000	1.23622	-5.32714E-005	0.199416	275.614
317.5000	1.33715	-6.51884E-005	0.200847	275.767
317.0000	1.51581	-7.66475E-005	0.202739	275.935
316.5000	1.50602	-8.05627E-005	0.204652	276.091
316.0000	1.52211	-0.000100483	0.206684	276.261
315.5000	1.50777	-0.000104899	0.208232	276.42
315.0000	1.64994	-0.000108235	0.21001	276.611
314.5000	1.58379	-0.000117646	0.211621	276.788
314.0000	1.69132	-0.000114132	0.213616	276.989
313.5000	1.66601	-0.000135911	0.215629	277.188
313.0000	1.57207	-0.000144243	0.217587	277.393
312.5000	1.47478	-0.000153934	0.219327	277.59
312.0000	1.5201	-0.00017125	0.22155	277.812
311.5000	1.43722	-0.000182518	0.223608	278.03
311.0000	1.40161	-0.000200023	0.226163	278.272
310.5000	1.26182	-0.000221353	0.228369	278.523
310.0000	1.32642	-0.000219322	0.230869	278.779
309.5000	1.36096	-0.000226611	0.233658	279.058
309.0000	1.3009	-0.000248529	0.236792	279.376
308.5000	1.34291	-0.000262499	0.23963	279.696
308.0000	1.42129	-0.000263003	0.242524	280.015
307.5000	1.34989	-0.000276047	0.246135	280.395
307.0000	1.41415	-0.000276768	0.249784	280.758
306.5000	1.51983	-0.000296891	0.253697	281.147
306.0000	1.74314	-0.000304274	0.257888	281.548
305.5000	1.6986	-0.000325811	0.262228	281.991
305.0000	1.74777	-0.000327946	0.266891	282.452
304.5000	1.63753	-0.000341468	0.272323	282.97
304.0000	1.56106	-0.000361591	0.278289	283.531
303.5000	1.55411	-0.000379948	0.284158	284.084
303.0000	1.62918	-0.000398947	0.290712	284.724
302.5000	1.52977	-0.000411002	0.29747	285.389
302.0000	1.49629	-0.000422995	0.304829	286.092
301.5000	1.43224	-0.000443572	0.312439	286.816
301.0000	1.37626	-0.000454143	0.320232	287.579
300.5000	1.46664	-0.00044147	0.327444	288.288
300.0000	1.49208	-0.000455774	0.336348	289.132
299.5000	1.47366	-0.000474737	0.344811	289.948
299.0000	1.44108	-0.000483545	0.35308	290.761
298.5000	1.29203	-0.000508297	0.361524	291.605
298.0000	1.25275	-0.000512654	0.369665	292.41
297.5000	1.08854	-0.000518098	0.378116	293.241
297.0000	1.19879	-0.000522347	0.386189	293.993
296.5000	1.35149	-0.000528508	0.393689	294.711
296.0000	1.40913	-0.000538965	0.401082	295.426
295.5000	1.3965	-0.000519559	0.40836	296.104
295.0000	1.31182	-0.000510093	0.415134	296.718
294.5000	1.32502	-0.000499141	0.421664	297.322
294.0000	1.31691	-0.00049086	0.42811	297.962
293.5000	1.58117	-0.000471516	0.433292	298.494
293.0000	1.51453	-0.00044906	0.438657	299.038
292.5000	1.55472	-0.000454794	0.443624	299.566
292.0000	1.67838	-0.000436785	0.447908	300.04
291.5000	1.27473	-0.000438554	0.452036	300.488
291.0000	1.35463	-0.00041201	0.456048	300.922
290.5000	1.4248	-0.000402647	0.460204	301.364
290.0000	1.38364	-0.000372496	0.464318	301.784
289.5000	1.30441	-0.000361087	0.467812	302.172
289.0000	1.24179	-0.000355327	0.471099	302.547
288.5000	0.993127	-0.000334954	0.474503	302.947
288.0000	0.647572	-0.000315577	0.477896	303.348
287.5000	0.733505	-0.000276975	0.481402	303.773
287.0000	0.682491	-0.000253023	0.48478	304.226
286.5000	0.607614	-0.000231677	0.487861	304.671
286.0000	0.616627	-0.000199814	0.490941	305.079
285.5000	0.580075	-0.000176533	0.494384	305.474
285.0000	0.194973	-0.000165355	0.497971	305.887
284.5000	0.059538	-0.00014302	0.501409	306.288
284.0000	0.0360648	-0.000119923	0.50505	306.708
283.5000	-0.103822	-9.78803E-005	0.509108	307.157
283.0000	-0.326914	-7.4059E-005	0.51298	307.592
282.5000	-0.469756	-2.44366E-005	0.517327	308.072
282.0000	-0.537233	7.30702E-006	0.521588	308.577
281.5000	-0.701632	3.25807E-005	0.525738	309.074
281.0000	-0.790015	5.18448E-005	0.530223	309.585
280.5000	-0.767564	8.33948E-005	0.534997	310.15
280.0000	-0.755356	0.000111228	0.540063	310.741
279.5000	-0.78963	0.000140323	0.545501	311.38
279.0000	-0.927715	0.000162746	0.550886	312.022
278.5000	-1.10091	0.000180731	0.557006	312.735
278.0000	-1.17059	0.000195396	0.564246	313.521
277.5000	-1.13585	0.000231201	0.571183	314.277
277.0000	-1.27478	0.000260205	0.578711	315.123
276.5000	-1.22229	0.000307977	0.586711	316.034
276.0000	-1.22036	0.000324222	0.594331	316.893
275.5000	-1.44125	0.00036083	0.603809	317.925
275.0000	-1.36005	0.000379611	0.613757	319.014
274.5000	-1.23148	0.000399722	0.624096	320.167
274.0000	-1.30575	0.000403263	0.635345	321.45
273.5000	-1.55188	0.000425382	0.646647	322.701
273.0000	-1.5279	0.000460434	0.659171	324.084
272.5000	-1.79302	0.000492664	0.672541	325.569
272.0000	-1.60714	0.000546433	0.686663	327.155
271.5000	-1.63529	0.000563626	0.702444	328.929
271.0000	-1.80901	0.000614208	0.718539	330.708
270.5000	-1.69042	0.000623696	0.735631	332.584
270.0000	-1.65163	0.000665604	0.753441	334.581
269.5000	-1.56793	0.000693756	0.772183	336.722
269.0000	-2.0293	0.000707173	0.791116	338.878
268.5000	-2.18571	0.000722765	0.812268	341.28
268.0000	-2.34395	0.000743798	0.834706	343.827
267.5000	-2.8404	0.000749406	0.858117	346.505
267.0000	-2.69712	0.000791363	0.883677	349.479
266.5000	-3.1995	0.000824036	0.910115	352.596
266.0000	-3.35734	0.000863763	0.935331	355.534
265.5000	-3.65208	0.000909944	0.962836	358.729
265.0000	-3.59807	0.000938604	0.992058	362.194
264.5000	-3.92419	0.000972129	1.02021	365.584
264.0000	-4.58358	0.000970737	1.04837	369.006
263.5000	-4.50728	0.00102523	1.07824	372.632
263.0000	-4.8688	0.00102403	1.10522	375.94
262.5000	-4.78181	0.00106716	1.13438	379.59
262.0000	-4.84375	0.00109355	1.16147	383.06
261.5000	-4.75606	0.00110121	1.18862	386.534
261.0000	-5.60959	0.00108427	1.21438	389.807
260.5000	-5.24621	0.00111102	1.24096	393.234
260.0000	-5.02771	0.00114586	1.26712	396.656
259.5000	-4.88926	0.00117637	1.29282	400.067
259.0000	-4.82652	0.00119819	1.3181	403.481
258.5000	-4.61416	0.00120015	1.3434	406.883
258.0000	-4.85647	0.00112064	1.36862	410.302
257.5000	-5.35908	0.0011275	1.39258	413.571
257.0000	-5.38114	0.00109956	1.41776	417.037
256.5000	-5.32157	0.00107748	1.44177	420.357
256.0000	-5.28142	0.00105142	1.46741	423.902
255.5000	-5.01153	0.00106214	1.49332	427.491
255.0000	-5.63543	0.00100779	1.51934	431.133
254.5000	-5.97582	0.000910076	1.54415	434.632
254.0000	-6.15535	0.000893808	1.56899	438.15
253.5000	-6.89254	0.000852361	1.59698	442.074
253.0000	-6.99115	0.000821548	1.62194	445.629
252.5000	-6.09838	0.000812838	1.65789	450.854
252.0000	-6.69523	0.000777167	1.68698	455.103
251.5000	-6.65119	0.000774782	1.71172	458.728
251.0000	-6.72796	0.000671684	1.73613	462.282
250.5000	-7.49363	0.000612638	1.75942	465.729
250.0000	-7.67447	0.00065095	1.7805	468.9
249.5000	-7.74002	0.000579987	1.80066	471.967
249.0000	-7.31281	0.000489901	1.82106	475.086
248.5000	-7.78014	0.000458745	1.83989	477.954
248.0000	-8.68119	0.000404477	1.85884	480.874
247.5000	-9.63068	0.000330689	1.87612	483.582
247.0000	-9.59299	0.000223859	1.8936	486.358
246.5000	-9.98834	0.000234921	1.91089	489.092
246.0000	-9.90998	0.000139791	1.92816	491.811
245.5000	-10.6428	7.58282E-005	1.94578	494.666
245.0000	-11.0187	-7.81885E-005	1.96353	497.553
244.5000	-11.3787	-0.000181546	1.98157	500.486
244.0000	-12.5478	-0.000288672	1.99991	503.508
243.5000	-12.8094	-0.000445582	2.01788	506.502
243.0000	-13.8074	-0.000503544	2.03628	509.619
242.5000	-15.1267	-0.000529644	2.05775	513.277
242.0000	-14.0555	-0.000530187	2.07755	516.663
241.5000	-14.8974	-0.000570996	2.101	520.683
241.0000	-14.6083	-0.000630817	2.12381	524.606
240.5000	-14.9014	-0.000676106	2.15043	529.278
240.0000	-14.7171	-0.000761404	2.17637	533.844
239.5000	-13.1121	-0.000895077	2.20907	539.616
239.0000	-13.8822	-0.0010487	2.23979	545.038
238.5000	-12.0312	-0.000898282	2.27458	551.222
238.0000	-12.1109	-0.00102484	2.31367	558.275
237.5000	-12.38	-0.00117584	2.35147	565.173
237.0000	-13.1768	-0.00132473	2.39378	572.962
236.5000	-13.2213	-0.00146275	2.43865	581.299
236.0000	-12.2954	-0.00171854	2.48368	589.737
235.5000	-14.2662	-0.00181707	2.53852	600.177
235.0000	-15.4933	-0.0018874	2.57764	607.715
234.5000	-15.4584	-0.00177275	2.62097	616.128
234.0000	-13.9605	-0.00194058	2.66848	625.443
233.5000	-14.8498	-0.00200149	2.72366	636.36
233.0000	-12.7299	-0.0021081	2.78348	648.371
232.5000	-15.0449	-0.00221839	2.84189	660.331
232.0000	-16.4568	-0.00227068	2.91079	674.726
231.5000	-14.6498	-0.00221289	2.96791	686.912
231.0000	-14.0994	-0.00213944	3.03172	700.778
230.5000	-15.0477	-0.00200484	3.0949	714.855
230.0000	-13.7443	-0.00195513	3.15374	728.316
229.5000	-10.0435	-0.00175075	3.21436	742.467
229.0000	-11.1748	-0.0014866	3.27276	756.452
228.5000	-9.07961	-0.00129158	3.32869	770.134
228.0000	-4.18206	-0.000811414	3.37887	782.729
227.5000	-5.34224	-0.00087741	3.42809	795.529
227.0000	-3.10639	-0.000653552	3.47358	807.726
226.5000	2.63531	-0.000297554	3.51726	819.817
226.0000	3.70069	-0.000412759	3.5526	830.028
225.5000	6.63226	-7.07968E-005	3.58558	839.999
225.0000	4.36005	3.12338E-005	3.6137	849.107
224.5000	3.86559	0.000302259	3.63741	857.355
224.0000	7.97962	0.000486348	3.65683	864.666
223.5000	11.3974	0.000557619	3.67215	871.006
223.0000	13.9891	0.000666858	3.68366	876.458
222.5000	11.4196	0.000632789	3.69207	881.871
222.0000	10.1884	0.000833038	3.69536	885.825
221.5000	6.99228	0.000874878	3.69516	889.136
221.0000	7.93949	0.000807182	3.69223	891.323
220.5000	7.49881	0.0008734	3.68731	893.068
220.0000	3.27612	0.000761428	3.68036	894.503

##### Extended Information
[Comments]
Sample name	JS187+JS190_5E-5_H2O_58-42
Comment
User
Division
Company	Labo systeme complexes hors equilibre

[Detailed Information]
Creation date	1/23/2024 11:51 AM

Data array type	Linear data array * 4
Horizontal axis	Wavelength [nm]
Vertical axis(1)	CD [mdeg]
Vertical axis(2)	LD [dOD]
Vertical axis(3)	Abs
Vertical axis(4)	HT [V]
Start	700 nm
End	220 nm
Data interval	0.5 nm
Data points	961     

[Measurement Information]
Instrument name	CD Jasco
Model name	J-1500
Serial No.	A005261638

Detector	PM-539
Detector S/N	A0052PM539
  Lock-in amp.	X mode
  HT volt	Auto

Detector	EXPML-535
Detector S/N	A0001
  Lock-in amp.	X mode
  HT volt	Auto

Measurement date	1/23/2024 11:51 AM

Overload detect	1
Photometric mode	CD, LD, Abs, HT
Measure range	700 - 220 nm
Data pitch	0.5 nm
CD scale	200 mdeg/1.0 dOD
FL scale	200 mdeg/1.0 dOD
D.I.T.	1 sec
Bandwidth	1.00 nm
Start mode	Immediately
Scanning speed	500 nm/min
Baseline correction	Baseline
Shutter control	Auto


