TITLE	JS187+JS190_5E-5_H2O_70-30
DATA TYPE	
ORIGIN	JASCO
OWNER	
DATE	24/01/23
TIME	11:01:19
SPECTROMETER/DATA SYSTEM	
LOCALE	1033
RESOLUTION	
DELTAX	-0.5
XUNITS	NANOMETERS
YUNITS	CD [mdeg]
Y2UNITS	LD [dOD]
Y3UNITS	ABSORBANCE
Y4UNITS	HT [V]
FIRSTX	  700.0000
LASTX	  220.0000
NPOINTS	     961
FIRSTY	     0.97284
MAXY	    12.64265
MINY	   -21.27594
XYDATA
700.0000	0.972838	1.34892E-005	-0.0594185	298.705
699.5000	0.926044	1.01721E-005	-0.060459	298.405
699.0000	0.808064	1.57064E-005	-0.0618571	298.027
698.5000	0.941093	4.19095E-005	-0.0627508	297.613
698.0000	0.925696	4.13888E-005	-0.0641359	297.154
697.5000	0.620266	5.08554E-005	-0.0659048	296.685
697.0000	0.691477	7.16212E-005	-0.0678003	296.186
696.5000	0.491073	8.10777E-005	-0.0688059	295.688
696.0000	0.444414	9.46823E-005	-0.0691193	295.14
695.5000	0.447018	8.2481E-005	-0.0692163	294.614
695.0000	0.372143	6.65035E-005	-0.0684625	294.168
694.5000	0.282726	5.30857E-005	-0.0678452	293.73
694.0000	0.27322	6.05709E-005	-0.0658868	293.341
693.5000	0.437481	6.12046E-005	-0.0636	292.987
693.0000	0.468599	7.56686E-005	-0.0606715	292.691
692.5000	0.289794	6.90785E-005	-0.057842	292.41
692.0000	0.28809	9.30021E-005	-0.0549585	292.172
691.5000	0.261316	7.74896E-005	-0.0517706	291.973
691.0000	0.468307	6.01641E-005	-0.0488686	291.765
690.5000	0.535922	7.04181E-005	-0.0466771	291.594
690.0000	0.558777	5.99044E-005	-0.0448026	291.442
689.5000	0.524607	5.74779E-005	-0.0426443	291.338
689.0000	0.202585	5.31935E-005	-0.0395311	291.306
688.5000	0.327296	3.98343E-005	-0.0361218	291.379
688.0000	0.066372	4.4846E-005	-0.0318678	291.558
687.5000	-0.0779978	3.98652E-005	-0.0274217	291.802
687.0000	-0.238242	4.86367E-005	-0.0240036	292.029
686.5000	-0.291493	3.55834E-005	-0.0213689	292.272
686.0000	-0.252207	2.27944E-005	-0.0202925	292.502
685.5000	-0.0848972	4.19626E-005	-0.0202808	292.735
685.0000	-0.280692	3.24312E-005	-0.0207751	292.955
684.5000	-0.336458	3.17184E-005	-0.0217955	293.17
684.0000	-0.0323807	5.44602E-005	-0.0232573	293.38
683.5000	0.0219791	4.92871E-005	-0.0241384	293.607
683.0000	0.00655005	6.43819E-005	-0.0250178	293.847
682.5000	-0.195739	6.36492E-005	-0.0252076	294.107
682.0000	-0.0837165	6.19844E-005	-0.0256067	294.384
681.5000	-0.112774	5.77443E-005	-0.0254695	294.665
681.0000	0.0389637	6.786E-005	-0.0256024	294.933
680.5000	0.453753	6.4972E-005	-0.0262724	295.127
680.0000	0.486281	5.10919E-005	-0.0285124	295.244
679.5000	0.540761	3.93603E-005	-0.0313389	295.298
679.0000	0.632587	5.26696E-005	-0.0351117	295.31
678.5000	0.784063	6.23837E-005	-0.0376031	295.308
678.0000	0.890614	7.31793E-005	-0.0396984	295.305
677.5000	1.18762	9.07367E-005	-0.0409599	295.289
677.0000	1.03349	9.28562E-005	-0.0414289	295.276
676.5000	1.19746	7.85974E-005	-0.0411516	295.263
676.0000	1.03729	6.53145E-005	-0.0407884	295.254
675.5000	0.800951	4.95975E-005	-0.0404164	295.246
675.0000	0.812869	4.86741E-005	-0.0398273	295.244
674.5000	0.762687	4.74419E-005	-0.0387173	295.261
674.0000	0.877024	5.53742E-005	-0.0375652	295.284
673.5000	0.954334	6.25266E-005	-0.0363863	295.31
673.0000	0.709533	7.59252E-005	-0.03608	295.347
672.5000	0.395141	6.66612E-005	-0.0357144	295.4
672.0000	0.232702	9.26807E-005	-0.0351098	295.453
671.5000	0.187387	9.72047E-005	-0.034042	295.507
671.0000	-0.0149754	9.51448E-005	-0.032775	295.582
670.5000	0.00253919	8.9332E-005	-0.0314384	295.647
670.0000	-0.0166157	0.000102139	-0.0303309	295.713
669.5000	-0.178738	0.000104739	-0.0296122	295.795
669.0000	-0.294111	9.35558E-005	-0.0289648	295.869
668.5000	-0.152339	9.32277E-005	-0.0281062	295.966
668.0000	-0.331358	7.3497E-005	-0.0274756	296.074
667.5000	-0.0646935	9.14355E-005	-0.0269934	296.184
667.0000	-0.207444	7.6471E-005	-0.0266897	296.305
666.5000	-0.257324	6.78322E-005	-0.0264864	296.415
666.0000	-0.355189	8.53961E-005	-0.0268945	296.543
665.5000	-0.33267	6.44938E-005	-0.0269301	296.666
665.0000	-0.209508	6.73215E-005	-0.0260867	296.797
664.5000	-0.0561636	6.55639E-005	-0.0251695	296.905
664.0000	-0.00902789	5.48363E-005	-0.024892	297.019
663.5000	0.252378	5.71333E-005	-0.0257132	297.12
663.0000	0.436549	4.41515E-005	-0.0258251	297.21
662.5000	0.493635	6.5651E-005	-0.025993	297.299
662.0000	0.416797	4.37631E-005	-0.0262059	297.378
661.5000	0.269886	3.64603E-005	-0.0259773	297.438
661.0000	0.184134	3.74185E-005	-0.0261555	297.485
660.5000	0.0729327	6.15845E-005	-0.0267029	297.506
660.0000	0.347285	5.40454E-005	-0.0268849	297.527
659.5000	0.216263	6.55504E-005	-0.0275336	297.535
659.0000	0.351341	6.57599E-005	-0.0279782	297.527
658.5000	0.313583	6.43509E-005	-0.0282828	297.499
658.0000	0.391517	5.54861E-005	-0.0283244	297.444
657.5000	0.617087	5.69626E-005	-0.028955	297.369
657.0000	0.408902	4.77537E-005	-0.0287326	297.271
656.5000	0.532411	5.18877E-005	-0.0296218	297.152
656.0000	0.625826	6.27259E-005	-0.0304117	297.018
655.5000	0.752029	6.25622E-005	-0.029756	296.871
655.0000	0.620089	6.97975E-005	-0.0296965	296.719
654.5000	0.559794	7.67242E-005	-0.0301133	296.57
654.0000	0.374869	7.21834E-005	-0.0296274	296.43
653.5000	0.529136	8.84058E-005	-0.0284203	296.299
653.0000	0.695942	9.22601E-005	-0.0265466	296.212
652.5000	0.803239	0.000110931	-0.0247748	296.141
652.0000	0.939477	0.000116067	-0.022786	296.099
651.5000	0.807594	0.000125914	-0.0203637	296.081
651.0000	0.75669	0.000117802	-0.0173423	296.102
650.5000	0.608452	0.000135764	-0.0151799	296.139
650.0000	0.835044	0.000138716	-0.0125206	296.207
649.5000	0.737097	0.000149936	-0.0104103	296.298
649.0000	0.775234	0.000164743	-0.0079351	296.423
648.5000	1.07887	0.000155512	-0.00628138	296.58
648.0000	1.06846	0.00015758	-0.00439518	296.749
647.5000	0.884445	0.000173329	-0.00265199	296.93
647.0000	0.856533	0.000180645	-0.00157659	297.121
646.5000	0.919938	0.00015263	-0.000685012	297.315
646.0000	1.19231	0.000141949	0.00111093	297.512
645.5000	1.20633	0.000155059	0.00181173	297.68
645.0000	1.19827	0.000144335	0.00130219	297.828
644.5000	1.02106	0.00014496	0.000908406	297.94
644.0000	0.993261	0.000164098	0.000692724	298.032
643.5000	0.782502	0.000151942	3.84516E-005	298.094
643.0000	1.03531	0.0001546	-0.000440029	298.145
642.5000	1.19653	0.000161818	-0.000978033	298.162
642.0000	1.30339	0.000188019	-0.00117911	298.174
641.5000	1.36793	0.000181972	-0.00149669	298.167
641.0000	1.27632	0.000164342	-0.00154198	298.14
640.5000	0.967889	0.000166013	-0.00119845	298.099
640.0000	1.06854	0.000176364	-0.000611706	298.047
639.5000	1.15886	0.000173098	0.000253429	297.98
639.0000	1.23347	0.000176904	0.000957237	297.914
638.5000	1.25451	0.000169163	0.00212827	297.838
638.0000	0.999993	0.000184121	0.00271263	297.761
637.5000	0.869704	0.000188183	0.00303735	297.676
637.0000	0.933583	0.000192893	0.00430355	297.597
636.5000	1.07368	0.000184742	0.0053525	297.525
636.0000	1.13998	0.000151649	0.0057282	297.456
635.5000	1.44553	0.000163478	0.00630778	297.399
635.0000	1.29621	0.00017327	0.00731315	297.346
634.5000	1.03678	0.00014975	0.0083424	297.309
634.0000	0.814626	0.000148772	0.00914598	297.262
633.5000	0.703757	0.000149559	0.00954286	297.215
633.0000	0.666184	0.00016052	0.0106204	297.185
632.5000	0.783911	0.000163789	0.0108262	297.135
632.0000	1.14143	0.000175001	0.0110778	297.089
631.5000	1.06512	0.000185861	0.0116885	297.05
631.0000	1.05161	0.000191371	0.0120701	296.994
630.5000	0.793142	0.000191427	0.0126709	296.96
630.0000	0.785712	0.000209696	0.0131959	296.911
629.5000	0.905349	0.000218099	0.0139177	296.867
629.0000	0.891836	0.000236422	0.0143272	296.817
628.5000	0.870811	0.000237271	0.0145789	296.771
628.0000	0.743389	0.000255836	0.015112	296.725
627.5000	0.629711	0.000257504	0.0160543	296.685
627.0000	0.436921	0.000232536	0.0164438	296.642
626.5000	0.372954	0.000233661	0.0163387	296.582
626.0000	0.417436	0.000233222	0.0163707	296.526
625.5000	0.43147	0.000230795	0.0170979	296.477
625.0000	0.300837	0.000210574	0.0179621	296.435
624.5000	0.235132	0.000210519	0.0188989	296.402
624.0000	0.0488203	0.000238413	0.0198431	296.39
623.5000	-0.0766217	0.00024758	0.0208477	296.389
623.0000	-0.358915	0.000234457	0.0218675	296.404
622.5000	-0.32004	0.000228782	0.0230306	296.43
622.0000	-0.477871	0.000231217	0.0239139	296.466
621.5000	-0.502164	0.000218733	0.024839	296.512
621.0000	-0.540681	0.000221791	0.0258671	296.573
620.5000	-0.515025	0.000206993	0.026553	296.637
620.0000	-0.644257	0.000217351	0.0271541	296.716
619.5000	-0.704169	0.000196274	0.0281885	296.826
619.0000	-0.731369	0.000190584	0.0294552	296.932
618.5000	-0.587148	0.000201833	0.0311398	297.053
618.0000	-0.550818	0.000200378	0.0329999	297.192
617.5000	-0.405688	0.000193969	0.0338726	297.34
617.0000	-0.526616	0.000205371	0.034396	297.488
616.5000	-0.412225	0.00021585	0.0350114	297.639
616.0000	-0.252073	0.00020178	0.0360946	297.792
615.5000	-0.322398	0.000187112	0.0366416	297.931
615.0000	-0.0166584	0.000180721	0.0371138	298.073
614.5000	0.111145	0.000184637	0.0374488	298.218
614.0000	0.363493	0.000179271	0.0377542	298.357
613.5000	0.331617	0.000179669	0.0381808	298.485
613.0000	0.499001	0.000183634	0.0385761	298.627
612.5000	0.508597	0.000184062	0.0390398	298.765
612.0000	0.737697	0.000188317	0.0396064	298.902
611.5000	0.565399	0.000190786	0.0404709	299.038
611.0000	0.672303	0.000192919	0.0408251	299.174
610.5000	0.857166	0.000192441	0.0410656	299.307
610.0000	0.920449	0.000189155	0.0410842	299.425
609.5000	0.995443	0.000200172	0.0416284	299.533
609.0000	1.05754	0.000194464	0.0422118	299.641
608.5000	1.16471	0.000192541	0.0431432	299.746
608.0000	1.11856	0.000221015	0.0436367	299.84
607.5000	1.08198	0.000201415	0.0438396	299.946
607.0000	1.15918	0.0001984	0.0443222	300.044
606.5000	0.925575	0.000210737	0.0449931	300.146
606.0000	0.821142	0.000232047	0.0463146	300.244
605.5000	0.720304	0.000229824	0.0473015	300.339
605.0000	0.621213	0.000232469	0.0485658	300.427
604.5000	0.716547	0.00024794	0.0495664	300.511
604.0000	0.555443	0.000250013	0.0506998	300.581
603.5000	0.599407	0.000254465	0.0519952	300.649
603.0000	0.788477	0.00024058	0.0528432	300.715
602.5000	0.649655	0.000245809	0.0542406	300.787
602.0000	0.949885	0.000249785	0.0557522	300.853
601.5000	0.748591	0.000248538	0.0572451	300.929
601.0000	0.781512	0.000246129	0.058862	301.017
600.5000	0.80688	0.000260029	0.060773	301.08
600.0000	0.588479	0.000255523	0.0623637	301.137
599.5000	0.600715	0.000266706	0.0648329	301.192
599.0000	0.5752	0.000285498	0.066779	301.232
598.5000	0.349182	0.000283278	0.0693114	301.27
598.0000	0.526922	0.000291181	0.0714553	301.311
597.5000	0.632318	0.000295428	0.0734966	301.359
597.0000	0.594276	0.000289883	0.0758016	301.404
596.5000	0.561866	0.00028873	0.0783147	301.445
596.0000	0.508278	0.000311609	0.0809073	301.486
595.5000	0.658662	0.000305506	0.0834324	301.538
595.0000	0.527191	0.000324619	0.0863186	301.585
594.5000	0.652722	0.000329971	0.0892187	301.634
594.0000	0.654599	0.000332291	0.0916541	301.69
593.5000	0.556579	0.000328854	0.0945513	301.736
593.0000	0.731139	0.000342778	0.097968	301.798
592.5000	0.834757	0.00034751	0.101059	301.896
592.0000	0.872288	0.000344876	0.104009	302.003
591.5000	0.838295	0.000345615	0.106652	302.108
591.0000	0.854467	0.000360577	0.109954	302.233
590.5000	0.968148	0.000368697	0.11312	302.385
590.0000	1.07096	0.000371997	0.116486	302.546
589.5000	0.959398	0.000364031	0.120118	302.719
589.0000	1.07551	0.000364886	0.123912	302.912
588.5000	1.10512	0.000348943	0.127571	303.116
588.0000	1.04492	0.000340861	0.131881	303.369
587.5000	0.842069	0.000344366	0.136313	303.648
587.0000	1.16788	0.000329919	0.140787	303.968
586.5000	1.21845	0.000345672	0.145181	304.289
586.0000	1.13041	0.000366486	0.15041	304.641
585.5000	1.21871	0.000366393	0.15521	305.004
585.0000	1.36554	0.000372433	0.16008	305.389
584.5000	1.45955	0.000385346	0.164783	305.76
584.0000	1.51791	0.000385149	0.170357	306.191
583.5000	1.57211	0.000384925	0.176296	306.654
583.0000	1.55097	0.000388121	0.182919	307.163
582.5000	1.73886	0.000396544	0.18945	307.702
582.0000	1.71771	0.00039221	0.196227	308.263
581.5000	1.83093	0.000444061	0.203605	308.887
581.0000	1.6481	0.000447254	0.211437	309.531
580.5000	1.80995	0.000464972	0.219451	310.199
580.0000	2.00239	0.000487097	0.227357	310.877
579.5000	2.08067	0.000500757	0.235437	311.588
579.0000	2.16391	0.000527652	0.243803	312.317
578.5000	2.31717	0.00056018	0.252919	313.079
578.0000	2.40184	0.000574484	0.262304	313.899
577.5000	2.81337	0.000592336	0.271775	314.787
577.0000	2.91841	0.000607933	0.282223	315.686
576.5000	3.09041	0.000624495	0.293657	316.678
576.0000	3.23414	0.00061701	0.304958	317.666
575.5000	3.47307	0.000635688	0.317076	318.723
575.0000	4.05569	0.000675579	0.328084	319.729
574.5000	4.42818	0.000673995	0.340592	320.855
574.0000	4.87291	0.000676264	0.353192	321.965
573.5000	5.27244	0.000700757	0.36602	323.112
573.0000	5.64363	0.000692053	0.379459	324.371
572.5000	6.08791	0.000710711	0.392347	325.587
572.0000	6.62761	0.00073005	0.406911	326.983
571.5000	7.05592	0.000741881	0.42155	328.367
571.0000	7.56707	0.000761454	0.437699	329.85
570.5000	8.27369	0.000767729	0.453787	331.386
570.0000	8.67641	0.000754833	0.469198	332.873
569.5000	9.1825	0.000789742	0.486184	334.461
569.0000	9.1048	0.00081042	0.503303	336.064
568.5000	9.49995	0.00081278	0.51924	337.62
568.0000	9.92674	0.000825313	0.535495	339.243
567.5000	10.3186	0.00085414	0.552038	340.894
567.0000	10.5831	0.000876537	0.568362	342.49
566.5000	10.9887	0.000861462	0.584529	344.056
566.0000	11.346	0.000908353	0.600494	345.606
565.5000	11.5646	0.000917715	0.615956	347.145
565.0000	11.8745	0.00096113	0.631161	348.627
564.5000	12.0558	0.000972878	0.646235	350.092
564.0000	12.1338	0.000987168	0.660495	351.446
563.5000	12.3343	0.00101356	0.673779	352.735
563.0000	12.0338	0.00103309	0.687068	354.059
562.5000	11.9587	0.0010318	0.699349	355.257
562.0000	11.9694	0.00104964	0.711082	356.393
561.5000	11.8591	0.00105823	0.723729	357.577
561.0000	11.6367	0.00104841	0.735185	358.68
560.5000	11.5918	0.00106716	0.745672	359.691
560.0000	11.4061	0.00105686	0.755775	360.633
559.5000	11.6343	0.00106082	0.76531	361.468
559.0000	11.2871	0.00103757	0.77325	362.155
558.5000	10.7087	0.00103599	0.779772	362.728
558.0000	10.4516	0.00101066	0.78521	363.194
557.5000	10.251	0.000998414	0.790321	363.588
557.0000	9.63862	0.000992135	0.794734	363.891
556.5000	9.72131	0.000971503	0.797967	364.116
556.0000	9.47398	0.000938982	0.799853	364.25
555.5000	9.30442	0.000896341	0.801351	364.303
555.0000	9.19778	0.000892911	0.802193	364.262
554.5000	9.37218	0.00086751	0.802535	364.124
554.0000	9.41279	0.000866123	0.801674	363.915
553.5000	9.01959	0.000840807	0.8002	363.638
553.0000	9.05974	0.000823395	0.798211	363.315
552.5000	9.03432	0.000824721	0.796386	362.955
552.0000	8.90767	0.000812862	0.793836	362.51
551.5000	8.77629	0.000816576	0.791092	362.057
551.0000	8.81609	0.000834974	0.787709	361.58
550.5000	8.74042	0.000818744	0.784071	361.058
550.0000	8.53767	0.000839341	0.780437	360.507
549.5000	8.51798	0.000845093	0.776801	359.936
549.0000	8.3885	0.000829507	0.772638	359.374
548.5000	8.74263	0.000815362	0.768629	358.841
548.0000	8.29543	0.000820992	0.765516	358.277
547.5000	8.24552	0.000852	0.762556	357.756
547.0000	8.068	0.000857199	0.75973	357.228
546.5000	8.00811	0.000862047	0.756918	356.771
546.0000	7.91914	0.000876636	0.753907	356.367
545.5000	7.85627	0.000878348	0.751993	355.966
545.0000	7.70872	0.000907677	0.750544	355.666
544.5000	7.84952	0.000920747	0.749187	355.364
544.0000	7.95604	0.000900839	0.748077	355.137
543.5000	7.74715	0.000890567	0.747568	354.962
543.0000	7.90153	0.000882849	0.747604	354.83
542.5000	7.99153	0.000887481	0.748302	354.738
542.0000	8.34169	0.00090118	0.749099	354.693
541.5000	8.48999	0.00089621	0.75056	354.74
541.0000	8.32421	0.000884316	0.752182	354.829
540.5000	7.98701	0.000885675	0.755096	354.98
540.0000	8.34649	0.00088569	0.75846	355.165
539.5000	8.55387	0.000891448	0.762102	355.434
539.0000	8.55723	0.000886399	0.766116	355.782
538.5000	9.18764	0.000889127	0.770746	356.175
538.0000	9.29039	0.000859681	0.775934	356.584
537.5000	9.40992	0.000894416	0.781675	357.065
537.0000	9.95155	0.000871386	0.787767	357.609
536.5000	9.95201	0.000865772	0.794282	358.184
536.0000	10.3269	0.000871358	0.801686	358.837
535.5000	11.0332	0.000895997	0.80911	359.504
535.0000	11.2135	0.000932638	0.817418	360.248
534.5000	11.1391	0.000929943	0.825485	360.981
534.0000	11.3278	0.000944253	0.834216	361.791
533.5000	11.4252	0.000967793	0.843048	362.638
533.0000	11.6836	0.000968579	0.851585	363.466
532.5000	11.8864	0.000979416	0.860485	364.342
532.0000	11.7802	0.00101807	0.870044	365.278
531.5000	12.0997	0.00104353	0.879967	366.241
531.0000	12.2595	0.00105951	0.890949	367.257
530.5000	12.6426	0.00104776	0.901345	368.253
530.0000	12.4031	0.00106948	0.912106	369.312
529.5000	12.2063	0.0010726	0.922566	370.339
529.0000	12.2828	0.00108671	0.932608	371.291
528.5000	11.8524	0.00113392	0.942417	372.242
528.0000	11.8165	0.00113146	0.951871	373.16
527.5000	11.5605	0.00112017	0.961851	374.109
527.0000	11.2022	0.00114881	0.972658	375.139
526.5000	10.6932	0.00111734	0.982566	376.11
526.0000	10.7646	0.00110995	0.992944	377.099
525.5000	10.3657	0.00110442	1.00292	378.044
525.0000	10.4897	0.00109061	1.01265	378.968
524.5000	10.1772	0.00108148	1.02175	379.808
524.0000	9.81002	0.00106755	1.03	380.559
523.5000	9.34933	0.00105445	1.03812	381.333
523.0000	8.79552	0.0010472	1.04572	382.047
522.5000	8.25356	0.0010232	1.05259	382.712
522.0000	7.82542	0.00102892	1.05975	383.377
521.5000	7.33058	0.000983958	1.06685	384.011
521.0000	6.73984	0.000977609	1.07339	384.603
520.5000	6.24806	0.000943384	1.07966	385.166
520.0000	5.77873	0.000871757	1.08523	385.661
519.5000	5.71909	0.000894435	1.09076	386.121
519.0000	5.39266	0.000883706	1.09582	386.555
518.5000	5.23933	0.000854284	1.1	386.928
518.0000	4.9612	0.000836811	1.10465	387.314
517.5000	4.44914	0.000852341	1.1092	387.679
517.0000	4.18696	0.000853594	1.11384	388.028
516.5000	4.03876	0.000877581	1.11844	388.367
516.0000	3.9155	0.000878425	1.12262	388.684
515.5000	3.55216	0.000838653	1.12619	388.984
515.0000	3.22555	0.000845791	1.12958	389.251
514.5000	2.82423	0.000837461	1.13284	389.519
514.0000	2.65175	0.000835416	1.13588	389.751
513.5000	2.64351	0.000828968	1.13902	389.984
513.0000	2.32044	0.000863435	1.14173	390.209
512.5000	2.13534	0.000906821	1.14502	390.472
512.0000	2.0663	0.000924141	1.14808	390.703
511.5000	1.81924	0.000913781	1.15076	390.931
511.0000	1.18022	0.000913787	1.15356	391.155
510.5000	1.4601	0.000943389	1.15645	391.359
510.0000	1.11994	0.000941512	1.15935	391.569
509.5000	0.893099	0.00092478	1.16195	391.76
509.0000	0.912033	0.00090508	1.16437	391.946
508.5000	1.15755	0.000857622	1.16655	392.092
508.0000	0.896432	0.000863112	1.1691	392.244
507.5000	0.714719	0.000846994	1.17173	392.395
507.0000	0.480871	0.000831706	1.17456	392.564
506.5000	0.405324	0.000802815	1.17731	392.729
506.0000	0.501549	0.000816015	1.17952	392.878
505.5000	0.16937	0.000793423	1.18172	393.024
505.0000	-0.00951834	0.000779424	1.18399	393.17
504.5000	-0.276476	0.000743302	1.18651	393.329
504.0000	-0.543892	0.000681334	1.18854	393.438
503.5000	-0.536273	0.000656627	1.1903	393.521
503.0000	-0.859374	0.000647018	1.19201	393.579
502.5000	-0.793764	0.000619885	1.19342	393.625
502.0000	-1.32108	0.000618083	1.19473	393.667
501.5000	-1.78974	0.000623457	1.19593	393.673
501.0000	-1.52542	0.000604869	1.19713	393.666
500.5000	-2.42645	0.000624749	1.19826	393.622
500.0000	-2.88121	0.000619222	1.19894	393.507
499.5000	-3.45279	0.000588944	1.1988	393.322
499.0000	-3.4286	0.000636584	1.19796	392.976
498.5000	-3.76919	0.000614919	1.19667	392.487
498.0000	-3.99424	0.000628868	1.19503	391.858
497.5000	-4.05808	0.000626724	1.19376	391.091
497.0000	-4.11482	0.000646854	1.1933	390.315
496.5000	-4.19862	0.000629822	1.19403	389.598
496.0000	-4.2769	0.00065431	1.19608	389.098
495.5000	-4.77245	0.000682803	1.19822	388.754
495.0000	-5.17745	0.000651388	1.19892	388.482
494.5000	-5.6304	0.00068628	1.1987	388.222
494.0000	-5.6287	0.000660856	1.19803	387.959
493.5000	-5.82234	0.000652573	1.19709	387.663
493.0000	-6.26771	0.000612292	1.19629	387.398
492.5000	-6.61223	0.000611364	1.19534	387.118
492.0000	-6.8664	0.000567574	1.19405	386.815
491.5000	-7.24415	0.000557131	1.19262	386.545
491.0000	-7.52108	0.000529907	1.19136	386.295
490.5000	-7.43254	0.000509165	1.18996	386.072
490.0000	-7.96662	0.000458182	1.18852	385.9
489.5000	-8.48197	0.000417459	1.18665	385.746
489.0000	-9.37692	0.000361992	1.18408	385.543
488.5000	-9.99711	0.00035967	1.18012	385.195
488.0000	-10.3838	0.000340578	1.17437	384.561
487.5000	-11.161	0.000335352	1.1682	383.702
487.0000	-11.4917	0.000319984	1.16324	382.766
486.5000	-12.001	0.000301874	1.15805	381.673
486.0000	-12.5529	0.000321553	1.15346	380.595
485.5000	-12.9816	0.000302445	1.15056	379.587
485.0000	-13.1808	0.000321393	1.14865	378.695
484.5000	-13.4998	0.000306789	1.14601	377.919
484.0000	-14.0012	0.000299723	1.14241	377.181
483.5000	-14.5037	0.000307437	1.13862	376.518
483.0000	-14.8172	0.000286941	1.13408	375.86
482.5000	-15.0441	0.000294853	1.12934	375.276
482.0000	-15.3633	0.000320919	1.12429	374.721
481.5000	-15.6928	0.000326648	1.11919	374.158
481.0000	-15.6766	0.000317139	1.11437	373.635
480.5000	-15.8259	0.000325469	1.10914	373.116
480.0000	-16.4396	0.000317454	1.10325	372.569
479.5000	-16.6302	0.000303898	1.09663	371.95
479.0000	-16.5953	0.000291561	1.08748	371.081
478.5000	-16.6471	0.000273477	1.07798	369.978
478.0000	-16.6047	0.000250304	1.07076	368.752
477.5000	-16.6703	0.000238914	1.06779	367.825
477.0000	-16.9043	0.000248436	1.06433	367.041
476.5000	-17.3343	0.000227348	1.05562	365.962
476.0000	-17.5006	0.000212391	1.04541	364.656
475.5000	-17.4537	0.00019988	1.03496	363.11
475.0000	-17.2	0.000211621	1.02484	361.379
474.5000	-17.2864	0.000237389	1.0157	359.569
474.0000	-17.5923	0.000225278	1.00699	357.623
473.5000	-17.8158	0.000185187	0.997477	355.41
473.0000	-17.797	0.000216254	0.988106	353.052
472.5000	-17.8356	0.000219131	0.980974	350.705
472.0000	-17.7293	0.00022144	0.977449	348.834
471.5000	-17.4412	0.000240805	0.974783	347.341
471.0000	-17.7397	0.000233749	0.972384	346.42
470.5000	-17.7185	0.000228369	0.970065	345.825
470.0000	-17.6037	0.000243399	0.966356	345.481
469.5000	-17.7294	0.00022606	0.95807	344.967
469.0000	-17.9959	0.000206887	0.944072	343.892
468.5000	-17.8017	0.000197208	0.931327	342.529
468.0000	-17.7283	0.000220213	0.922223	341.205
467.5000	-17.7664	0.000228738	0.915781	340.129
467.0000	-17.8514	0.000227272	0.91083	339.312
466.5000	-18.1208	0.000211891	0.906273	338.713
466.0000	-18.1026	0.000200732	0.900866	338.302
465.5000	-17.9502	0.000222912	0.894992	338.107
465.0000	-17.9719	0.000231666	0.888436	338.163
464.5000	-17.7442	0.000259456	0.879111	338.247
464.0000	-18.3382	0.000258474	0.866102	338.028
463.5000	-18.1807	0.00025402	0.851364	337.415
463.0000	-18.1201	0.000261241	0.837684	336.531
462.5000	-18.2916	0.000255118	0.826437	335.566
462.0000	-18.1689	0.000277772	0.816665	334.579
461.5000	-18.2715	0.000305262	0.80792	333.725
461.0000	-17.9764	0.000299989	0.799534	333.025
460.5000	-18.0412	0.000302463	0.790517	332.423
460.0000	-17.8268	0.000310968	0.781525	331.912
459.5000	-17.5464	0.00029624	0.771744	331.417
459.0000	-17.6228	0.000291472	0.760268	330.798
458.5000	-17.592	0.000295653	0.748235	330.079
458.0000	-17.1745	0.000316719	0.735342	329.162
457.5000	-17.1715	0.000317529	0.722265	328.015
457.0000	-16.9842	0.000307635	0.710408	326.753
456.5000	-16.7704	0.000312361	0.700724	325.585
456.0000	-16.6186	0.000316038	0.689976	324.431
455.5000	-16.2001	0.000322703	0.676446	323.026
455.0000	-16.3175	0.000324042	0.664489	321.594
454.5000	-16.0471	0.000338872	0.655961	320.369
454.0000	-15.7675	0.000349098	0.647979	319.377
453.5000	-15.2657	0.000351277	0.637974	318.501
453.0000	-15.0662	0.000356255	0.627221	317.624
452.5000	-14.9967	0.000365009	0.616736	316.73
452.0000	-14.8042	0.000381575	0.606435	315.792
451.5000	-14.5749	0.000386183	0.595576	314.806
451.0000	-14.3502	0.000387776	0.585326	313.872
450.5000	-14.1439	0.000387156	0.574751	312.891
450.0000	-13.8353	0.000411606	0.565472	311.988
449.5000	-13.5608	0.00040773	0.557429	311.242
449.0000	-13.2709	0.000411757	0.549974	310.681
448.5000	-13.1123	0.000441877	0.540018	310.029
448.0000	-12.6425	0.000430802	0.52961	309.272
447.5000	-12.587	0.000434294	0.521984	308.652
447.0000	-12.4156	0.000433699	0.516349	308.288
446.5000	-12.0793	0.00045472	0.508988	307.985
446.0000	-11.8227	0.000443973	0.49739	307.408
445.5000	-11.7643	0.00045422	0.486007	306.576
445.0000	-11.7642	0.00045934	0.476352	305.632
444.5000	-11.4631	0.000475313	0.467245	304.664
444.0000	-11.1083	0.000461379	0.458509	303.706
443.5000	-11.0403	0.000465842	0.449806	302.683
443.0000	-10.9848	0.000489414	0.442725	301.803
442.5000	-10.8392	0.000498223	0.43586	300.953
442.0000	-10.6785	0.000508796	0.429599	300.236
441.5000	-10.5956	0.000494012	0.422533	299.476
441.0000	-10.6681	0.000503572	0.4159	298.775
440.5000	-10.6464	0.000503693	0.40933	298.084
440.0000	-10.3885	0.000497555	0.402314	297.357
439.5000	-10.2566	0.000512885	0.395218	296.63
439.0000	-9.73162	0.000521901	0.387574	295.859
438.5000	-9.66194	0.000526316	0.379492	295.07
438.0000	-9.48083	0.00052598	0.371319	294.294
437.5000	-9.23782	0.000533278	0.363705	293.562
437.0000	-8.75302	0.000531897	0.355628	292.806
436.5000	-8.66695	0.000526951	0.349368	292.187
436.0000	-8.49408	0.000545835	0.343631	291.634
435.5000	-8.43287	0.000552101	0.337248	291.087
435.0000	-8.1891	0.00055744	0.330496	290.544
434.5000	-8.0787	0.00055632	0.323476	289.98
434.0000	-7.81211	0.000548158	0.316676	289.402
433.5000	-7.80602	0.000560532	0.310249	288.831
433.0000	-7.60242	0.000566472	0.304002	288.225
432.5000	-7.41686	0.000565887	0.29793	287.63
432.0000	-7.19995	0.000566144	0.291601	287.018
431.5000	-7.08433	0.000550372	0.285216	286.391
431.0000	-7.05352	0.000544138	0.279079	285.773
430.5000	-6.95396	0.000555864	0.273217	285.171
430.0000	-6.76941	0.000541517	0.267818	284.597
429.5000	-6.62621	0.000554763	0.262092	283.999
429.0000	-6.53209	0.000543048	0.25647	283.406
428.5000	-6.26115	0.000544969	0.250974	282.834
428.0000	-5.93737	0.000547276	0.244844	282.23
427.5000	-5.74249	0.00052162	0.239609	281.687
427.0000	-5.6536	0.000525097	0.234648	281.159
426.5000	-5.38873	0.000529644	0.229566	280.612
426.0000	-5.11652	0.000538924	0.224441	280.042
425.5000	-4.89509	0.000535999	0.219557	279.455
425.0000	-4.76242	0.000532039	0.214524	278.847
424.5000	-4.55892	0.000525222	0.209707	278.226
424.0000	-4.33451	0.000527602	0.205339	277.629
423.5000	-4.20101	0.000529514	0.201788	277.108
423.0000	-4.01383	0.000524121	0.197952	276.628
422.5000	-3.84765	0.000522589	0.193935	276.189
422.0000	-3.68816	0.000523355	0.189809	275.771
421.5000	-3.4576	0.000525583	0.185634	275.357
421.0000	-3.25961	0.000520281	0.181915	274.98
420.5000	-3.05284	0.000524583	0.178074	274.596
420.0000	-3.02608	0.000527714	0.174167	274.191
419.5000	-2.94078	0.000528758	0.170352	273.777
419.0000	-2.8288	0.000524702	0.166838	273.401
418.5000	-2.75754	0.000524898	0.163292	273.057
418.0000	-2.87533	0.000519324	0.160197	272.731
417.5000	-2.86858	0.00052401	0.156948	272.411
417.0000	-2.82791	0.000525526	0.154197	272.12
416.5000	-2.76128	0.000523033	0.151723	271.89
416.0000	-2.7481	0.000534871	0.148975	271.699
415.5000	-2.81684	0.000546243	0.14564	271.471
415.0000	-2.82125	0.000546468	0.1423	271.207
414.5000	-2.7728	0.000543312	0.139368	270.905
414.0000	-2.72065	0.000543736	0.137014	270.613
413.5000	-2.73545	0.000553662	0.134844	270.319
413.0000	-2.76582	0.000549392	0.132801	270.05
412.5000	-2.73709	0.000555987	0.130772	269.805
412.0000	-2.79174	0.000560335	0.12898	269.591
411.5000	-2.58075	0.000565584	0.126744	269.362
411.0000	-2.54689	0.000560467	0.124871	269.167
410.5000	-2.50722	0.000564056	0.123179	268.982
410.0000	-2.381	0.000555136	0.121648	268.81
409.5000	-2.31319	0.000555827	0.120226	268.66
409.0000	-2.27343	0.000552149	0.118819	268.53
408.5000	-2.23212	0.000557929	0.116863	268.379
408.0000	-2.27548	0.000547158	0.114899	268.241
407.5000	-1.96944	0.000538184	0.112821	268.087
407.0000	-1.82153	0.000525634	0.110982	267.928
406.5000	-1.86826	0.000519072	0.109355	267.773
406.0000	-1.74559	0.00051855	0.1077	267.612
405.5000	-1.64872	0.000518578	0.10576	267.431
405.0000	-1.583	0.000513255	0.103973	267.242
404.5000	-1.45583	0.000507601	0.102393	267.05
404.0000	-1.40193	0.000512953	0.101226	266.841
403.5000	-1.40364	0.000523961	0.0998303	266.588
403.0000	-1.45953	0.000515192	0.0991034	266.35
402.5000	-1.21077	0.000513365	0.0976827	266.068
402.0000	-1.16732	0.000524016	0.0969408	265.817
401.5000	-0.971456	0.000527754	0.0963523	265.549
401.0000	-0.924269	0.000530071	0.0956686	265.312
400.5000	-0.852555	0.000526047	0.0950651	265.093
400.0000	-0.782212	0.000529494	0.0943485	264.897
399.5000	-0.73303	0.00053521	0.0942357	264.718
399.0000	-0.977767	0.000535578	0.0941153	264.572
398.5000	-0.94254	0.000539511	0.0937132	264.434
398.0000	-0.904323	0.000547317	0.0933941	264.329
397.5000	-0.854739	0.000542721	0.0931065	264.251
397.0000	-0.830476	0.000548178	0.0931693	264.199
396.5000	-0.888097	0.000554671	0.0929723	264.172
396.0000	-0.930345	0.000551101	0.0928215	264.168
395.5000	-0.960543	0.000538872	0.0922847	264.186
395.0000	-0.98247	0.000535132	0.0920214	264.243
394.5000	-0.877289	0.000527079	0.0918897	264.326
394.0000	-1.00104	0.000537114	0.0918573	264.439
393.5000	-1.14575	0.000529978	0.0915046	264.566
393.0000	-1.36264	0.000511183	0.0909381	264.701
392.5000	-1.26286	0.000523745	0.0906535	264.836
392.0000	-1.20467	0.00052407	0.0905835	264.955
391.5000	-1.22919	0.000524621	0.0906101	265.049
391.0000	-1.23755	0.000516241	0.0905154	265.133
390.5000	-0.994695	0.000521041	0.0903379	265.222
390.0000	-1.02296	0.000529153	0.0901002	265.294
389.5000	-0.971652	0.000535767	0.0904218	265.377
389.0000	-0.964405	0.000528238	0.0906963	265.436
388.5000	-0.936934	0.000523127	0.0909331	265.506
388.0000	-0.772701	0.00052872	0.0908869	265.558
387.5000	-0.629892	0.000538339	0.0913025	265.619
387.0000	-0.674373	0.000549698	0.0921512	265.675
386.5000	-0.650659	0.000553257	0.0928968	265.731
386.0000	-0.600857	0.000558564	0.0938097	265.786
385.5000	-0.635936	0.000554793	0.0945659	265.823
385.0000	-0.546318	0.000558946	0.0954072	265.861
384.5000	-0.561998	0.000559926	0.0961305	265.888
384.0000	-0.609777	0.000576479	0.097146	265.928
383.5000	-0.504342	0.000581508	0.0978561	265.965
383.0000	-0.295527	0.000593601	0.0984984	266.008
382.5000	-0.230021	0.000597857	0.099311	266.058
382.0000	-0.428213	0.000601255	0.100595	266.111
381.5000	-0.434559	0.00059232	0.101957	266.161
381.0000	-0.476014	0.000610796	0.102939	266.206
380.5000	-0.527503	0.000603567	0.104038	266.277
380.0000	-0.649023	0.000605255	0.10515	266.328
379.5000	-0.789375	0.000610341	0.10646	266.393
379.0000	-1.00145	0.00059784	0.107432	266.461
378.5000	-1.05834	0.000596948	0.107935	266.515
378.0000	-0.966869	0.000603979	0.108507	266.57
377.5000	-0.888133	0.000594263	0.109109	266.613
377.0000	-0.670622	0.000602529	0.109575	266.646
376.5000	-0.572906	0.000614134	0.110284	266.677
376.0000	-0.585126	0.000612466	0.111001	266.702
375.5000	-0.600697	0.00059718	0.111529	266.727
375.0000	-0.616409	0.000602112	0.111935	266.733
374.5000	-0.798873	0.000598115	0.112441	266.74
374.0000	-0.819685	0.000598238	0.112939	266.744
373.5000	-0.886696	0.000588548	0.113276	266.741
373.0000	-0.924917	0.000572392	0.113387	266.739
372.5000	-0.827118	0.000572104	0.11346	266.726
372.0000	-0.694174	0.000573122	0.113533	266.708
371.5000	-0.597644	0.000578571	0.113754	266.71
371.0000	-0.594285	0.000566086	0.114118	266.71
370.5000	-0.474718	0.000574312	0.114535	266.709
370.0000	-0.481102	0.000581569	0.114858	266.714
369.5000	-0.495133	0.000575431	0.115083	266.717
369.0000	-0.41995	0.000589228	0.115538	266.741
368.5000	-0.520872	0.000585864	0.116185	266.777
368.0000	-0.570693	0.000582796	0.116535	266.811
367.5000	-0.60336	0.000576184	0.117016	266.851
367.0000	-0.411469	0.0005753	0.117793	266.902
366.5000	-0.103734	0.000585793	0.118349	266.962
366.0000	-0.141971	0.000592392	0.119077	267.047
365.5000	-0.0185886	0.000596182	0.119737	267.128
365.0000	0.120649	0.000601997	0.120055	267.191
364.5000	0.0214781	0.000606359	0.120693	267.262
364.0000	-0.0739174	0.000605121	0.121376	267.354
363.5000	0.0474127	0.000603368	0.122322	267.441
363.0000	-0.00507212	0.000588327	0.123155	267.523
362.5000	-0.00462996	0.000588678	0.123903	267.609
362.0000	0.175779	0.000585535	0.124562	267.691
361.5000	0.126373	0.000588488	0.125495	267.781
361.0000	0.0298702	0.000587388	0.126248	267.857
360.5000	0.026439	0.000581324	0.12677	267.933
360.0000	0.221079	0.000585408	0.127396	268.009
359.5000	0.278828	0.000589538	0.127994	268.09
359.0000	0.423762	0.000585271	0.128286	268.164
358.5000	0.261342	0.000586602	0.128414	268.234
358.0000	0.245355	0.000579999	0.128336	268.284
357.5000	0.289714	0.000583152	0.128299	268.338
357.0000	0.355293	0.000572843	0.128529	268.393
356.5000	0.510186	0.000584449	0.129248	268.463
356.0000	0.617108	0.00057746	0.129548	268.527
355.5000	0.662799	0.000578791	0.129654	268.577
355.0000	0.767938	0.000575336	0.129692	268.632
354.5000	0.917729	0.000593001	0.129701	268.685
354.0000	0.988598	0.000590982	0.129791	268.736
353.5000	0.938313	0.000600447	0.12992	268.789
353.0000	1.00777	0.000601255	0.130016	268.848
352.5000	1.05425	0.000606795	0.130183	268.91
352.0000	1.28371	0.000598727	0.130456	268.98
351.5000	1.23476	0.000599064	0.130739	269.048
351.0000	1.17068	0.000588911	0.131255	269.107
350.5000	1.18441	0.000584778	0.131892	269.167
350.0000	1.17465	0.000589741	0.132722	269.24
349.5000	1.04468	0.000587093	0.133715	269.319
349.0000	1.01246	0.000595964	0.134753	269.396
348.5000	1.01577	0.000596675	0.135774	269.463
348.0000	0.833429	0.000593637	0.136462	269.524
347.5000	0.699753	0.000597533	0.13751	269.591
347.0000	0.774927	0.000602125	0.138629	269.662
346.5000	0.666535	0.000592789	0.139466	269.725
346.0000	0.637497	0.000588571	0.140121	269.779
345.5000	0.57988	0.00058752	0.141138	269.849
345.0000	0.620158	0.000579815	0.142211	269.922
344.5000	0.575743	0.000577623	0.143306	269.995
344.0000	0.526236	0.000573071	0.14458	270.068
343.5000	0.444877	0.000563506	0.145275	270.113
343.0000	0.481762	0.000550886	0.145969	270.168
342.5000	0.519833	0.000568201	0.146609	270.231
342.0000	0.50479	0.000571176	0.147355	270.306
341.5000	0.593067	0.000568204	0.148075	270.37
341.0000	0.774779	0.0005724	0.149059	270.439
340.5000	0.92385	0.00055585	0.149765	270.508
340.0000	0.935413	0.000556483	0.150552	270.587
339.5000	1.07071	0.000542631	0.150963	270.655
339.0000	0.999907	0.000539656	0.151631	270.722
338.5000	0.955081	0.000541062	0.152566	270.806
338.0000	0.967813	0.000550875	0.153492	270.894
337.5000	1.04023	0.000559971	0.154263	270.976
337.0000	1.15531	0.000558905	0.154881	271.054
336.5000	1.13411	0.000542815	0.155697	271.131
336.0000	1.26383	0.00053059	0.156427	271.212
335.5000	1.26646	0.000545984	0.15725	271.299
335.0000	1.25446	0.000546346	0.158244	271.402
334.5000	1.41092	0.000541971	0.159082	271.5
334.0000	1.53392	0.000529394	0.160023	271.596
333.5000	1.53262	0.000526578	0.161291	271.69
333.0000	1.50259	0.000527981	0.162196	271.782
332.5000	1.22752	0.000518392	0.162769	271.872
332.0000	1.31528	0.000533268	0.163518	271.97
331.5000	1.3909	0.000531236	0.16443	272.063
331.0000	1.39984	0.000547682	0.165657	272.181
330.5000	1.41457	0.000548635	0.166383	272.274
330.0000	1.31047	0.000532494	0.167305	272.376
329.5000	1.29639	0.000528485	0.168346	272.49
329.0000	1.32969	0.000499196	0.169348	272.61
328.5000	1.4032	0.000503936	0.170303	272.714
328.0000	1.38598	0.000502695	0.171089	272.813
327.5000	1.19356	0.000498604	0.17204	272.909
327.0000	1.12229	0.000489052	0.173228	273.002
326.5000	1.14357	0.000496992	0.174623	273.112
326.0000	0.806009	0.00049026	0.17621	273.235
325.5000	0.751685	0.000492161	0.177607	273.363
325.0000	0.679874	0.000478983	0.178667	273.49
324.5000	0.786107	0.000471305	0.180033	273.63
324.0000	0.861626	0.000461816	0.181749	273.786
323.5000	0.817539	0.000451481	0.1836	273.943
323.0000	0.765712	0.000442742	0.185154	274.098
322.5000	0.769	0.000426154	0.186663	274.253
322.0000	0.720665	0.000429638	0.188044	274.409
321.5000	0.73155	0.000429191	0.189843	274.58
321.0000	0.760098	0.000421365	0.19172	274.756
320.5000	0.71505	0.000415518	0.193695	274.934
320.0000	0.645024	0.000415564	0.195362	275.099
319.5000	0.700123	0.000414656	0.197019	275.263
319.0000	0.760689	0.000434252	0.198708	275.454
318.5000	0.750229	0.00042773	0.200406	275.655
318.0000	0.679971	0.000423974	0.201825	275.826
317.5000	1.01457	0.000423268	0.20341	275.993
317.0000	0.936975	0.000420017	0.205235	276.155
316.5000	0.870737	0.000413227	0.207043	276.302
316.0000	0.928409	0.00039625	0.209081	276.472
315.5000	1.01236	0.000393858	0.210509	276.621
315.0000	1.04707	0.000389588	0.21233	276.816
314.5000	0.84059	0.000385025	0.214094	277.006
314.0000	0.91649	0.000390963	0.216017	277.201
313.5000	1.07609	0.000366358	0.218065	277.404
313.0000	1.29568	0.000374652	0.220029	277.61
312.5000	1.24042	0.000374909	0.221853	277.814
312.0000	1.13379	0.000362625	0.224092	278.037
311.5000	1.0648	0.000356379	0.226295	278.269
311.0000	1.18749	0.000352419	0.228807	278.507
310.5000	1.03985	0.00033963	0.231188	278.773
310.0000	1.03066	0.000340615	0.233637	279.025
309.5000	0.830437	0.00032699	0.236419	279.304
309.0000	0.800555	0.000322654	0.23942	279.61
308.5000	0.918296	0.000320827	0.242491	279.951
308.0000	0.878129	0.000332135	0.245422	280.274
307.5000	0.755584	0.000327915	0.248951	280.647
307.0000	0.779503	0.00033586	0.252632	281.013
306.5000	0.876611	0.00034349	0.256761	281.421
306.0000	1.10157	0.000331335	0.260899	281.818
305.5000	0.9158	0.000321145	0.265447	282.28
305.0000	0.944669	0.000322872	0.27008	282.738
304.5000	0.736551	0.000311396	0.275494	283.256
304.0000	0.758108	0.000315571	0.281418	283.813
303.5000	0.633171	0.000306904	0.287526	284.389
303.0000	0.632251	0.000307206	0.294164	285.036
302.5000	0.504369	0.000304763	0.301098	285.718
302.0000	0.632289	0.000309604	0.308617	286.436
301.5000	0.458907	0.000300899	0.316523	287.188
301.0000	0.683791	0.000310359	0.324438	287.963
300.5000	0.750759	0.000316647	0.331678	288.676
300.0000	0.576553	0.000313354	0.340681	289.53
299.5000	0.64301	0.000297223	0.349441	290.374
299.0000	0.788088	0.000304483	0.358058	291.22
298.5000	0.621131	0.000278228	0.366878	292.099
298.0000	0.674705	0.00026396	0.375239	292.926
297.5000	0.55979	0.000269141	0.38406	293.792
297.0000	0.641634	0.000274139	0.392268	294.558
296.5000	0.490941	0.000274548	0.400165	295.315
296.0000	0.518151	0.000275697	0.407771	296.051
295.5000	0.589612	0.000276974	0.415307	296.754
295.0000	0.747287	0.00028399	0.422186	297.379
294.5000	0.785629	0.000286906	0.428869	297.999
294.0000	0.712459	0.000296057	0.435385	298.646
293.5000	0.684361	0.000283967	0.440412	299.165
293.0000	0.746333	0.000306897	0.445721	299.704
292.5000	0.526659	0.000297002	0.450941	300.257
292.0000	0.381292	0.000313915	0.455389	300.748
291.5000	0.284926	0.000318638	0.459578	301.203
291.0000	0.0519755	0.000320515	0.463647	301.643
290.5000	-0.261124	0.000317723	0.467902	302.096
290.0000	-0.419557	0.000338151	0.471997	302.514
289.5000	-0.59278	0.000347606	0.47538	302.893
289.0000	-0.684393	0.000358281	0.478646	303.267
288.5000	-0.758324	0.000367085	0.482108	303.672
288.0000	-0.917374	0.000380156	0.485496	304.074
287.5000	-0.935965	0.000386094	0.489124	304.511
287.0000	-1.17105	0.000399902	0.492587	304.974
286.5000	-1.36165	0.000402022	0.495658	305.418
286.0000	-1.5396	0.000393783	0.498889	305.842
285.5000	-1.38655	0.000416699	0.502543	306.258
285.0000	-1.56197	0.000434436	0.506396	306.698
284.5000	-1.80889	0.00042106	0.509912	307.106
284.0000	-1.82722	0.000409002	0.513751	307.547
283.5000	-1.87014	0.000396731	0.517789	307.995
283.0000	-1.98322	0.000409963	0.521794	308.444
282.5000	-2.0619	0.000421516	0.526113	308.922
282.0000	-2.01978	0.000437937	0.530386	309.429
281.5000	-2.18608	0.00043669	0.534613	309.935
281.0000	-2.36465	0.000442588	0.539354	310.472
280.5000	-2.20837	0.000452772	0.544366	311.061
280.0000	-2.38146	0.000467474	0.549527	311.663
279.5000	-2.6316	0.000456042	0.554939	312.301
279.0000	-3.04646	0.000467414	0.560375	312.95
278.5000	-3.13138	0.000468697	0.566661	313.681
278.0000	-3.24949	0.000473328	0.574234	314.502
277.5000	-3.22581	0.000491102	0.581338	315.276
277.0000	-3.43734	0.000497027	0.589092	316.147
276.5000	-3.49352	0.000512602	0.597309	317.081
276.0000	-3.45473	0.000529313	0.605208	317.971
275.5000	-3.80904	0.000552805	0.614753	319.012
275.0000	-3.71329	0.000571022	0.625039	320.138
274.5000	-3.72814	0.000579258	0.635732	321.33
274.0000	-4.08159	0.000566438	0.647574	322.677
273.5000	-4.2396	0.000585284	0.659252	323.97
273.0000	-4.19067	0.00059835	0.672237	325.404
272.5000	-4.5584	0.000631945	0.685861	326.92
272.0000	-4.99288	0.000623329	0.700256	328.539
271.5000	-5.09887	0.000646465	0.716302	330.346
271.0000	-5.14161	0.000671845	0.732902	332.184
270.5000	-5.32609	0.000680421	0.750542	334.124
270.0000	-5.23342	0.000698696	0.768912	336.186
269.5000	-5.5715	0.000718455	0.788094	338.382
269.0000	-5.85905	0.000687119	0.807392	340.585
268.5000	-6.3391	0.00069472	0.828888	343.034
268.0000	-6.88131	0.000696028	0.851586	345.619
267.5000	-6.88576	0.000707324	0.87553	348.366
267.0000	-7.31638	0.000725044	0.901644	351.413
266.5000	-8.35065	0.000699399	0.928703	354.612
266.0000	-8.77298	0.000705317	0.954448	357.622
265.5000	-9.40508	0.000686463	0.982463	360.889
265.0000	-9.69354	0.000672873	1.01226	364.436
264.5000	-10.123	0.000665535	1.04087	367.895
264.0000	-10.848	0.000668245	1.06969	371.408
263.5000	-11.1783	0.000652414	1.10032	375.142
263.0000	-11.6456	0.000655281	1.12789	378.536
262.5000	-11.8618	0.000662167	1.15772	382.286
262.0000	-12.4625	0.000663025	1.18537	385.841
261.5000	-12.1044	0.000675372	1.21294	389.385
261.0000	-12.5385	0.000683072	1.23929	392.748
260.5000	-12.4893	0.000699109	1.26662	396.286
260.0000	-12.4342	0.000704787	1.29341	399.807
259.5000	-13.0291	0.000704079	1.31975	403.318
259.0000	-13.2829	0.000689872	1.34567	406.832
258.5000	-13.2097	0.000703246	1.37162	410.339
258.0000	-12.7143	0.000678374	1.39747	413.86
257.5000	-12.6428	0.000701778	1.42189	417.21
257.0000	-12.0272	0.000723347	1.44762	420.771
256.5000	-12.8982	0.000758253	1.47226	424.196
256.0000	-13.3822	0.00075308	1.49848	427.842
255.5000	-13.0887	0.00073136	1.52499	431.535
255.0000	-12.7867	0.000742149	1.55167	435.292
254.5000	-12.9608	0.000729514	1.57713	438.904
254.0000	-12.9041	0.000728378	1.60266	442.541
253.5000	-12.8573	0.000661054	1.6314	446.598
253.0000	-14.0522	0.000630635	1.65696	450.263
252.5000	-15.5381	0.000557689	1.69376	455.647
252.0000	-14.4317	0.000534447	1.7236	460.036
251.5000	-14.4766	0.00058067	1.74891	463.772
251.0000	-14.2967	0.000551334	1.77389	467.437
250.5000	-14.5807	0.000505195	1.79787	471.012
250.0000	-14.3869	0.000545182	1.81941	474.278
249.5000	-14.5193	0.000558496	1.84012	477.45
249.0000	-14.9379	0.000498465	1.86112	480.684
248.5000	-15.9467	0.000389	1.88038	483.642
248.0000	-14.919	0.000369002	1.89988	486.669
247.5000	-15.032	0.000349303	1.91758	489.465
247.0000	-15.5065	0.000324944	1.93552	492.335
246.5000	-16.8434	0.000317762	1.95316	495.148
246.0000	-17.5532	0.000246803	1.97072	497.936
245.5000	-18.78	0.000265321	1.98863	500.865
245.0000	-18.183	0.000355175	2.0067	503.829
244.5000	-17.4768	0.000383294	2.02513	506.851
244.0000	-18.2568	0.000369996	2.0439	509.968
243.5000	-19.5163	0.000195851	2.0621	513.029
243.0000	-18.5036	0.000195862	2.08085	516.232
242.5000	-19.7359	0.000194402	2.10253	519.962
242.0000	-19.3072	0.000234464	2.12255	523.419
241.5000	-19.4542	0.00019485	2.14637	527.539
241.0000	-19.7482	0.000195062	2.16948	531.552
240.5000	-18.785	0.000116094	2.19657	536.348
240.0000	-18.7088	4.78631E-005	2.22306	541.05
239.5000	-20.0317	4.2128E-005	2.25635	546.982
239.0000	-20.0191	5.91417E-005	2.2876	552.55
238.5000	-20.3601	5.14865E-006	2.32293	558.892
238.0000	-19.68	0.000208854	2.36256	566.116
237.5000	-18.3429	0.000246714	2.4009	573.185
237.0000	-19.8173	0.000272345	2.44379	581.161
236.5000	-20.8727	0.000129859	2.48925	589.698
236.0000	-21.2759	0.000166634	2.53476	598.322
235.5000	-18.5484	0.000104571	2.59032	609.015
235.0000	-17.5605	5.86226E-005	2.62975	616.699
234.5000	-16.9651	7.44851E-005	2.67351	625.294
234.0000	-17.755	7.50749E-005	2.72159	634.828
233.5000	-19.2761	3.36868E-005	2.7769	645.908
233.0000	-17.8812	1.94911E-006	2.83681	658.088
232.5000	-18.0732	-0.000104269	2.89494	670.148
232.0000	-17.9355	-0.000189437	2.9632	684.604
231.5000	-15.6077	-0.000417581	3.01932	696.752
231.0000	-13.8955	-0.000190645	3.08176	710.517
230.5000	-11.5364	-0.000225843	3.14288	724.35
230.0000	-13.4513	-7.28304E-005	3.19936	737.486
229.5000	-11.7013	-0.000457497	3.25693	751.165
229.0000	-12.4174	-0.000347276	3.31193	764.577
228.5000	-12.1763	-0.000304288	3.36415	777.602
228.0000	-14.0234	-0.000451061	3.4106	789.502
227.5000	-10.6391	-0.000396652	3.4556	801.482
227.0000	-12.55	-0.000283099	3.4967	812.79
226.5000	-12.1104	-1.35458E-005	3.53555	823.873
226.0000	-13.7345	-6.51887E-005	3.56654	833.151
225.5000	-9.18481	-1.53646E-005	3.59493	842.113
225.0000	-9.96238	-4.7086E-005	3.61851	850.205
224.5000	-9.90914	-0.000310062	3.63754	857.384
224.0000	-10.5997	-0.000366939	3.6526	863.685
223.5000	-10.5557	-0.000175048	3.66386	869.076
223.0000	-12.1225	4.78648E-005	3.67159	873.633
222.5000	-10.2773	1.49603E-005	3.67585	878.058
222.0000	-9.29891	-0.000139718	3.67592	881.239
221.5000	-8.0774	-0.000303841	3.67275	883.833
221.0000	-6.0775	-0.000367863	3.668	885.579
220.5000	-2.68905	-0.000428035	3.66121	886.871
220.0000	-0.610786	-0.000468669	3.65276	887.94

##### Extended Information
[Comments]
Sample name	JS187+JS190_5E-5_H2O_70-30
Comment
User
Division
Company	Labo systeme complexes hors equilibre

[Detailed Information]
Creation date	1/23/2024 12:01 PM

Data array type	Linear data array * 4
Horizontal axis	Wavelength [nm]
Vertical axis(1)	CD [mdeg]
Vertical axis(2)	LD [dOD]
Vertical axis(3)	Abs
Vertical axis(4)	HT [V]
Start	700 nm
End	220 nm
Data interval	0.5 nm
Data points	961     

[Measurement Information]
Instrument name	CD Jasco
Model name	J-1500
Serial No.	A005261638

Detector	PM-539
Detector S/N	A0052PM539
  Lock-in amp.	X mode
  HT volt	Auto

Detector	EXPML-535
Detector S/N	A0001
  Lock-in amp.	X mode
  HT volt	Auto

Measurement date	1/23/2024 12:01 PM

Overload detect	1
Photometric mode	CD, LD, Abs, HT
Measure range	700 - 220 nm
Data pitch	0.5 nm
CD scale	200 mdeg/1.0 dOD
FL scale	200 mdeg/1.0 dOD
D.I.T.	1 sec
Bandwidth	1.00 nm
Start mode	Immediately
Scanning speed	500 nm/min
Baseline correction	Baseline
Shutter control	Auto


