TITLE	JS187+JS190_5E-5_H2O_44-56
DATA TYPE	
ORIGIN	JASCO
OWNER	
DATE	24/01/23
TIME	11:19:42
SPECTROMETER/DATA SYSTEM	
LOCALE	1033
RESOLUTION	
DELTAX	-0.5
XUNITS	NANOMETERS
YUNITS	CD [mdeg]
Y2UNITS	LD [dOD]
Y3UNITS	ABSORBANCE
Y4UNITS	HT [V]
FIRSTX	  700.0000
LASTX	  220.0000
NPOINTS	     961
FIRSTY	     1.10058
MAXY	     7.38521
MINY	   -12.22778
XYDATA
700.0000	1.10058	0.000168147	-0.0575674	298.879
699.5000	0.712836	0.000163666	-0.0586668	298.574
699.0000	0.710201	0.000165502	-0.0600101	298.201
698.5000	0.823631	0.00016473	-0.0608933	297.788
698.0000	1.19317	0.000165827	-0.0621891	297.337
697.5000	1.07237	0.000186195	-0.0639313	296.87
697.0000	0.987676	0.000198058	-0.0658667	296.367
696.5000	0.862988	0.000196289	-0.0671321	295.845
696.0000	0.720164	0.000200778	-0.0675396	295.287
695.5000	0.79905	0.000191144	-0.0676416	294.761
695.0000	0.696783	0.000172359	-0.0670933	294.296
694.5000	0.438292	0.000177759	-0.0665577	293.85
694.0000	0.461491	0.000175992	-0.0646654	293.455
693.5000	0.467526	0.000183089	-0.062338	293.104
693.0000	0.447952	0.000182177	-0.0593338	292.815
692.5000	0.312913	0.000174646	-0.0564362	292.54
692.0000	0.417603	0.000191801	-0.0534483	292.312
691.5000	0.516261	0.000173812	-0.0502847	292.11
691.0000	0.612545	0.000170343	-0.0472626	291.913
690.5000	0.407978	0.000174425	-0.0451834	291.732
690.0000	0.292993	0.000172229	-0.0433389	291.577
689.5000	0.221043	0.000176834	-0.0410318	291.487
689.0000	0.232157	0.000181796	-0.0376609	291.478
688.5000	0.475004	0.000201112	-0.034077	291.568
688.0000	0.360819	0.000228684	-0.0297878	291.75
687.5000	0.337676	0.000229613	-0.0253716	291.992
687.0000	0.174645	0.000234006	-0.0217989	292.233
686.5000	-0.0476225	0.000214321	-0.0190605	292.486
686.0000	-0.229106	0.000201376	-0.0179035	292.723
685.5000	-0.123956	0.000202965	-0.0177808	292.966
685.0000	-0.358478	0.00018909	-0.0182888	293.186
684.5000	-0.510096	0.000183765	-0.0193066	293.401
684.0000	-0.165683	0.000184596	-0.0207697	293.611
683.5000	-0.149833	0.00017144	-0.0216608	293.837
683.0000	-0.00702342	0.000203525	-0.0225304	294.078
682.5000	0.00620728	0.000201604	-0.0228369	294.327
682.0000	0.369769	0.000191909	-0.0230896	294.619
681.5000	0.276529	0.00018405	-0.022962	294.899
681.0000	0.448518	0.000181792	-0.0231255	295.164
680.5000	0.669874	0.00017662	-0.0238324	295.355
680.0000	0.471689	0.000154476	-0.0261501	295.464
679.5000	0.391068	0.000131296	-0.0290091	295.516
679.0000	0.45853	0.000138303	-0.0327734	295.528
678.5000	0.74424	0.00014452	-0.0351876	295.534
678.0000	1.08983	0.000147911	-0.0373211	295.527
677.5000	1.31183	0.000164636	-0.0386227	295.507
677.0000	1.14739	0.000184594	-0.039107	295.493
676.5000	1.39757	0.000193314	-0.038841	295.478
676.0000	1.40773	0.000196223	-0.0385091	295.467
675.5000	1.30576	0.000195887	-0.0381292	295.46
675.0000	1.20699	0.000177045	-0.0374871	295.463
674.5000	1.08485	0.000163149	-0.0363962	295.478
674.0000	0.872812	0.000169564	-0.0353616	295.489
673.5000	0.839908	0.000168829	-0.0342522	295.509
673.0000	0.682439	0.000180846	-0.0339219	295.549
672.5000	0.515803	0.000181571	-0.0337896	295.58
672.0000	0.634227	0.000195803	-0.0331736	295.634
671.5000	0.75616	0.000210467	-0.0320663	295.691
671.0000	0.612017	0.000200378	-0.0308996	295.757
670.5000	0.62195	0.000211962	-0.0296591	295.813
670.0000	0.481175	0.000243321	-0.0285917	295.875
669.5000	0.549921	0.000250356	-0.0279247	295.952
669.0000	0.59953	0.00024666	-0.0272026	296.033
668.5000	0.811503	0.000225613	-0.0264761	296.118
668.0000	0.66098	0.000210322	-0.025815	296.229
667.5000	0.635618	0.000213409	-0.0255143	296.323
667.0000	0.478609	0.000226241	-0.0253242	296.433
666.5000	0.416442	0.000236769	-0.0249646	296.558
666.0000	0.352544	0.000260925	-0.0251611	296.705
665.5000	0.36712	0.000235717	-0.0250517	296.842
665.0000	0.376574	0.000230468	-0.0242917	296.965
664.5000	0.470819	0.000223744	-0.02328	297.083
664.0000	0.475225	0.000218769	-0.0231545	297.181
663.5000	0.479748	0.000215203	-0.023976	297.283
663.0000	0.58018	0.000214315	-0.0241476	297.367
662.5000	0.814298	0.000235865	-0.0244486	297.443
662.0000	0.754208	0.000206015	-0.0247601	297.514
661.5000	0.393679	0.000183633	-0.0246508	297.563
661.0000	0.258703	0.000179601	-0.0249109	297.602
660.5000	0.264736	0.000206926	-0.0253351	297.634
660.0000	0.687982	0.000199206	-0.0255316	297.654
659.5000	0.585215	0.00020267	-0.026195	297.661
659.0000	0.581805	0.000193125	-0.0268677	297.631
658.5000	0.563279	0.000185745	-0.0275302	297.569
658.0000	0.522505	0.000171768	-0.027727	297.5
657.5000	0.788839	0.000182225	-0.028568	297.405
657.0000	0.570781	0.000179283	-0.0284282	297.299
656.5000	0.580874	0.000193349	-0.0295164	297.162
656.0000	0.723503	0.000206298	-0.0303337	297.025
655.5000	0.815989	0.000193127	-0.02977	296.869
655.0000	0.676732	0.000192494	-0.0297729	296.711
654.5000	0.657791	0.000203629	-0.0301578	296.566
654.0000	0.371798	0.000194173	-0.0297496	296.418
653.5000	0.655048	0.000211866	-0.0284101	296.3
653.0000	0.789615	0.000228258	-0.0267352	296.194
652.5000	0.653393	0.000244496	-0.0249416	296.125
652.0000	0.759656	0.000248919	-0.0230274	296.077
651.5000	0.556011	0.000261787	-0.0206661	296.052
651.0000	0.646196	0.000253026	-0.0177184	296.067
650.5000	0.486603	0.000268365	-0.0153444	296.123
650.0000	0.755234	0.000259533	-0.0125017	296.209
649.5000	0.745473	0.000273952	-0.0104137	296.298
649.0000	0.75649	0.000292304	-0.00793297	296.423
648.5000	0.978607	0.000279918	-0.00641058	296.567
648.0000	1.2735	0.000283872	-0.00459127	296.73
647.5000	1.01226	0.000291238	-0.00299598	296.898
647.0000	0.778121	0.000295004	-0.00191165	297.089
646.5000	0.779072	0.000277933	-0.0010513	297.28
646.0000	0.942019	0.000274739	0.000628237	297.467
645.5000	0.788694	0.000278193	0.00124716	297.627
645.0000	0.820972	0.000264397	0.00056898	297.759
644.5000	0.801305	0.000264005	0.000158448	297.869
644.0000	0.749732	0.000275711	-0.000153924	297.952
643.5000	0.731587	0.000258418	-0.000726973	298.022
643.0000	0.846858	0.000264675	-0.00129089	298.065
642.5000	0.990357	0.000268979	-0.00185854	298.079
642.0000	1.23302	0.000284149	-0.00225965	298.072
641.5000	1.27153	0.000282187	-0.0027983	298.045
641.0000	1.22723	0.000278562	-0.00304238	297.999
640.5000	0.979152	0.00028814	-0.00272448	297.956
640.0000	0.924019	0.000304138	-0.00221788	297.896
639.5000	0.964487	0.000296824	-0.00130542	297.834
639.0000	1.19147	0.000320882	-0.000724544	297.756
638.5000	1.30124	0.000309243	0.000372528	297.673
638.0000	1.30964	0.000323974	0.000798882	297.581
637.5000	1.35884	0.000319977	0.00110899	297.495
637.0000	1.33444	0.000321676	0.00231195	297.41
636.5000	1.40123	0.000310635	0.00324904	297.327
636.0000	1.44273	0.000278847	0.00343964	297.242
635.5000	1.56759	0.00028674	0.00385821	297.169
635.0000	1.61428	0.000298239	0.00477153	297.107
634.5000	1.60417	0.000292437	0.00573151	297.064
634.0000	1.05219	0.000292303	0.00631353	296.996
633.5000	1.06959	0.000291465	0.00676417	296.954
633.0000	1.09177	0.000291523	0.00767626	296.909
632.5000	0.990314	0.000279343	0.00788375	296.859
632.0000	1.13021	0.000276461	0.00810726	296.811
631.5000	1.01722	0.000272819	0.00860982	296.761
631.0000	1.17653	0.000269582	0.00906662	296.712
630.5000	1.20069	0.000267282	0.00947711	296.66
630.0000	1.02156	0.000271063	0.00985287	296.598
629.5000	1.12646	0.000267288	0.010374	296.535
629.0000	1.12406	0.00029545	0.0105859	296.467
628.5000	1.09501	0.000278502	0.0107535	296.412
628.0000	1.20769	0.00028262	0.0112321	296.362
627.5000	1.11275	0.000297112	0.0120481	296.31
627.0000	0.834355	0.000278631	0.012281	296.252
626.5000	0.649612	0.000270208	0.0121716	296.192
626.0000	0.579503	0.000266226	0.0120383	296.121
625.5000	0.694094	0.000259035	0.0127438	296.07
625.0000	0.820101	0.000265354	0.0135375	296.021
624.5000	0.829676	0.000275069	0.0144114	295.982
624.0000	1.07739	0.000282088	0.0153969	295.974
623.5000	0.871825	0.000294217	0.0164309	295.975
623.0000	0.688927	0.00029015	0.0174252	295.988
622.5000	0.589885	0.000297248	0.0184726	296.003
622.0000	0.570101	0.000294654	0.0192937	296.033
621.5000	0.483107	0.000284567	0.0203223	296.089
621.0000	0.498838	0.000290154	0.02129	296.144
620.5000	0.339812	0.000264706	0.0219552	296.206
620.0000	0.294268	0.000277895	0.0225187	296.282
619.5000	0.23735	0.000284917	0.023385	296.376
619.0000	0.257113	0.000284826	0.0247035	296.487
618.5000	0.468701	0.000298195	0.0264587	296.614
618.0000	0.442236	0.00032046	0.0283092	296.752
617.5000	0.729205	0.000312509	0.029115	296.894
617.0000	0.610166	0.000339985	0.029591	297.037
616.5000	0.639568	0.000338855	0.0301043	297.178
616.0000	0.70991	0.000332654	0.0307907	297.294
615.5000	0.731718	0.000317335	0.0312137	297.421
615.0000	1.23616	0.000328005	0.0314854	297.544
614.5000	1.3637	0.000338688	0.0316592	297.674
614.0000	1.10766	0.000333081	0.0319198	297.808
613.5000	1.38439	0.000349635	0.0323097	297.933
613.0000	1.30064	0.000368026	0.0326029	298.065
612.5000	1.40122	0.00038479	0.0330739	298.204
612.0000	1.70218	0.000398176	0.0336008	298.337
611.5000	1.65737	0.000404467	0.0343951	298.465
611.0000	1.59942	0.000383433	0.0345958	298.587
610.5000	1.6898	0.000387383	0.0345944	298.697
610.0000	1.72434	0.00036088	0.0344308	298.798
609.5000	1.69016	0.000363958	0.0349039	298.898
609.0000	1.60042	0.000352929	0.0353057	298.989
608.5000	1.59406	0.0003321	0.0361292	299.084
608.0000	1.57155	0.000342312	0.0365794	299.174
607.5000	1.48222	0.000324617	0.036679	299.27
607.0000	1.38375	0.000325294	0.0371351	299.365
606.5000	1.07156	0.000321541	0.0376984	299.457
606.0000	1.37281	0.000344663	0.0390907	299.561
605.5000	1.16438	0.000345443	0.0398765	299.637
605.0000	1.18815	0.000341489	0.0410786	299.719
604.5000	1.0659	0.000344547	0.0420432	299.799
604.0000	0.859174	0.000336361	0.0432688	299.878
603.5000	0.722322	0.000326504	0.0445585	299.946
603.0000	0.80929	0.000329667	0.0454199	300.012
602.5000	0.875551	0.000335475	0.0467742	300.08
602.0000	1.213	0.000331111	0.0483301	300.15
601.5000	1.10291	0.000331349	0.0497496	300.219
601.0000	1.13931	0.000344205	0.0511826	300.29
600.5000	1.32504	0.000363329	0.0530617	300.35
600.0000	1.27034	0.000379561	0.0546128	300.402
599.5000	1.37607	0.000398485	0.0570177	300.452
599.0000	1.40774	0.000413522	0.0589195	300.488
598.5000	1.35513	0.000434617	0.0612592	300.507
598.0000	1.19879	0.000424671	0.0632544	300.534
597.5000	1.32751	0.000439884	0.0651384	300.567
597.0000	1.48836	0.000433027	0.0674777	300.615
596.5000	1.56749	0.000428007	0.0697816	300.636
596.0000	1.79269	0.000444026	0.0721487	300.656
595.5000	1.72171	0.000436027	0.0744832	300.689
595.0000	1.67181	0.000434686	0.0770735	300.708
594.5000	1.79229	0.000440254	0.0798717	300.747
594.0000	1.80952	0.000458004	0.0820588	300.78
593.5000	1.72817	0.000473018	0.0847813	300.809
593.0000	1.73329	0.000463589	0.0881265	300.865
592.5000	1.89674	0.000473135	0.0910869	300.95
592.0000	1.82113	0.000478313	0.094119	301.064
591.5000	1.55001	0.000463185	0.0966378	301.158
591.0000	1.63073	0.000466282	0.0998402	301.272
590.5000	1.62891	0.000450649	0.102954	301.419
590.0000	1.60138	0.000441213	0.106288	301.577
589.5000	1.64592	0.000419842	0.10985	301.742
589.0000	1.41983	0.000426272	0.113446	301.916
588.5000	1.26361	0.000417019	0.117118	302.121
588.0000	1.39307	0.000427205	0.121379	302.368
587.5000	1.46945	0.000433449	0.125624	302.629
587.0000	1.84946	0.000437003	0.13001	302.94
586.5000	1.53365	0.000432234	0.134242	303.244
586.0000	1.10147	0.000429465	0.139139	303.563
585.5000	1.05735	0.000430851	0.143878	303.919
585.0000	1.20211	0.000450295	0.148537	304.283
584.5000	1.23857	0.000465053	0.153162	304.645
584.0000	1.08278	0.000464128	0.158526	305.055
583.5000	1.06381	0.00048034	0.16422	305.493
583.0000	1.1951	0.000489381	0.170697	305.986
582.5000	0.941101	0.000497068	0.177119	306.514
582.0000	0.77603	0.000509093	0.183492	307.033
581.5000	0.307591	0.000533936	0.190499	307.62
581.0000	0.162841	0.000538302	0.198068	308.236
580.5000	0.0399844	0.000544401	0.205859	308.88
580.0000	-0.220863	0.000544695	0.213389	309.519
579.5000	-0.562858	0.000550005	0.221175	310.199
579.0000	-0.675904	0.000565565	0.229323	310.904
578.5000	-0.993243	0.000582203	0.238218	311.641
578.0000	-0.935254	0.000600841	0.247205	312.42
577.5000	-1.02578	0.000599987	0.25642	313.279
577.0000	-1.4203	0.000600316	0.266518	314.14
576.5000	-1.67496	0.000617042	0.277582	315.092
576.0000	-1.88196	0.000614743	0.288481	316.036
575.5000	-2.17497	0.000601421	0.300125	317.041
575.0000	-2.47917	0.000625284	0.310847	318.014
574.5000	-2.53023	0.000656626	0.322929	319.093
574.0000	-2.6053	0.000669228	0.335272	320.172
573.5000	-2.73466	0.000676367	0.347767	321.28
573.0000	-2.91008	0.000678139	0.360679	322.481
572.5000	-3.04888	0.000693895	0.373041	323.638
572.0000	-3.40632	0.000677234	0.387055	324.971
571.5000	-3.55375	0.000701523	0.401179	326.296
571.0000	-3.77351	0.000723846	0.416788	327.716
570.5000	-4.08555	0.000736612	0.432355	329.191
570.0000	-4.44699	0.000737842	0.447455	330.637
569.5000	-4.93388	0.000757392	0.463919	332.163
569.0000	-5.53458	0.000799408	0.480492	333.7
568.5000	-5.99064	0.000795225	0.495878	335.19
568.0000	-6.31567	0.000800315	0.511583	336.746
567.5000	-6.53704	0.000820466	0.527592	338.331
567.0000	-6.83757	0.000834675	0.543343	339.856
566.5000	-7.04254	0.000813725	0.558957	341.354
566.0000	-7.42078	0.00081689	0.574231	342.821
565.5000	-7.58299	0.000811365	0.588998	344.276
565.0000	-7.67439	0.000840457	0.603727	345.697
564.5000	-7.77619	0.000838428	0.61832	347.1
564.0000	-8.00571	0.000860549	0.632032	348.386
563.5000	-8.13191	0.000888117	0.644869	349.618
563.0000	-8.32016	0.000900985	0.657631	350.875
562.5000	-8.63747	0.000883042	0.669303	351.998
562.0000	-8.70902	0.000894259	0.680472	353.064
561.5000	-9.02856	0.000859776	0.692464	354.168
561.0000	-8.95279	0.000828659	0.703441	355.21
560.5000	-8.85467	0.000844781	0.713531	356.17
560.0000	-8.52589	0.000846119	0.723183	357.054
559.5000	-8.55317	0.000828245	0.73226	357.832
559.0000	-8.66996	0.000819135	0.739796	358.47
558.5000	-8.77587	0.000811995	0.745975	359
558.0000	-8.7146	0.000828239	0.751129	359.43
557.5000	-8.82037	0.000811571	0.755988	359.793
557.0000	-8.95489	0.000783306	0.760109	360.061
556.5000	-9.26656	0.000777574	0.763063	360.254
556.0000	-8.93731	0.000780629	0.76465	360.353
555.5000	-8.74046	0.000748939	0.76589	360.377
555.0000	-8.62088	0.000728088	0.766484	360.31
554.5000	-8.2966	0.000729619	0.766801	360.17
554.0000	-8.00874	0.000713424	0.765864	359.955
553.5000	-7.77437	0.000732319	0.764361	359.677
553.0000	-7.48344	0.000759395	0.76233	359.352
552.5000	-7.52973	0.000758638	0.760413	358.985
552.0000	-7.43255	0.000710635	0.757857	358.543
551.5000	-7.64484	0.000698669	0.755145	358.099
551.0000	-7.50679	0.000691537	0.751642	357.613
550.5000	-7.34619	0.000664705	0.748003	357.095
550.0000	-7.14245	0.000691224	0.744287	356.541
549.5000	-6.85891	0.000677733	0.740864	355.998
549.0000	-6.5788	0.000695655	0.736863	355.459
548.5000	-6.17321	0.000701189	0.732979	354.945
548.0000	-6.02851	0.000715686	0.729974	354.397
547.5000	-5.98711	0.000726826	0.727201	353.901
547.0000	-6.03659	0.000733594	0.724493	353.391
546.5000	-5.62923	0.000745506	0.721765	352.947
546.0000	-5.52728	0.000759455	0.718718	352.543
545.5000	-5.34883	0.000784327	0.716914	352.158
545.0000	-5.58912	0.000752054	0.715548	351.869
544.5000	-5.47889	0.000779379	0.71446	351.599
544.0000	-5.67265	0.00080352	0.713453	351.385
543.5000	-5.74914	0.000820687	0.713022	351.22
543.0000	-5.40739	0.00086339	0.713158	351.1
542.5000	-5.46502	0.000891491	0.714041	351.028
542.0000	-5.28335	0.000904816	0.714962	350.997
541.5000	-5.52797	0.000906334	0.716384	351.04
541.0000	-5.58539	0.000882583	0.717904	351.117
540.5000	-5.96858	0.000875396	0.720625	351.246
540.0000	-5.6859	0.000881404	0.723907	351.42
539.5000	-5.8079	0.000874697	0.727338	351.664
539.0000	-5.78976	0.000876907	0.731073	351.978
538.5000	-5.94816	0.000880078	0.735571	352.354
538.0000	-6.26208	0.000866305	0.740641	352.747
537.5000	-6.67592	0.000885151	0.746206	353.205
537.0000	-6.89135	0.000897142	0.752115	353.724
536.5000	-6.9388	0.000894062	0.75826	354.253
536.0000	-6.88265	0.000856014	0.765293	354.86
535.5000	-6.56293	0.00086945	0.772358	355.481
535.0000	-6.9909	0.000860612	0.780282	356.177
534.5000	-7.0645	0.000842637	0.787921	356.855
534.0000	-7.00055	0.00083551	0.796155	357.604
533.5000	-7.09714	0.000824543	0.804617	358.402
533.0000	-7.51513	0.000818802	0.812795	359.182
532.5000	-7.33509	0.000849787	0.821191	359.994
532.0000	-7.52113	0.000850944	0.830326	360.874
531.5000	-7.64316	0.000859338	0.839851	361.783
531.0000	-7.97358	0.000847049	0.850372	362.737
530.5000	-7.95726	0.000841189	0.860327	363.675
530.0000	-7.94567	0.000841951	0.8705	364.656
529.5000	-7.94147	0.000821575	0.88043	365.614
529.0000	-7.85351	0.000820666	0.889964	366.498
528.5000	-7.53547	0.000822351	0.899251	367.382
528.0000	-7.56338	0.000825731	0.908162	368.228
527.5000	-7.69958	0.000833788	0.917475	369.092
527.0000	-7.9731	0.000834088	0.92753	370.025
526.5000	-7.85128	0.000822709	0.936684	370.9
526.0000	-7.61738	0.000832541	0.946412	371.804
525.5000	-7.48461	0.000853521	0.955776	372.669
525.0000	-7.17399	0.000848005	0.964919	373.514
524.5000	-6.99898	0.000885569	0.973458	374.28
524.0000	-7.06718	0.00086104	0.981256	374.971
523.5000	-6.82289	0.000861147	0.988813	375.671
523.0000	-6.6171	0.000868814	0.995931	376.322
522.5000	-6.24935	0.000891826	1.0023	376.92
522.0000	-6.13339	0.000900685	1.00883	377.505
521.5000	-5.73767	0.000928225	1.01539	378.068
521.0000	-5.84543	0.000921439	1.02142	378.594
520.5000	-5.48967	0.000923131	1.02723	379.097
520.0000	-5.35613	0.000947858	1.03234	379.533
519.5000	-5.04168	0.000950767	1.03749	379.942
519.0000	-4.65954	0.000964906	1.04217	380.329
518.5000	-4.50826	0.000972446	1.04618	380.675
518.0000	-4.16698	0.000939174	1.05063	381.033
517.5000	-4.39402	0.000934309	1.05499	381.37
517.0000	-4.30145	0.000929493	1.05937	381.685
516.5000	-3.99173	0.000941334	1.06348	381.964
516.0000	-3.87861	0.000931385	1.06739	382.245
515.5000	-3.79359	0.000934422	1.07062	382.501
515.0000	-3.86845	0.000914102	1.07369	382.728
514.5000	-3.83776	0.000892491	1.07672	382.965
514.0000	-4.0738	0.000867148	1.07954	383.167
513.5000	-4.13901	0.000860772	1.08244	383.369
513.0000	-4.03215	0.000831478	1.08494	383.567
512.5000	-3.59526	0.000848546	1.08797	383.797
512.0000	-3.16751	0.000845538	1.09089	384.007
511.5000	-2.76669	0.000797244	1.09344	384.217
511.0000	-2.90712	0.000768105	1.09608	384.419
510.5000	-2.62566	0.000767543	1.09887	384.608
510.0000	-2.7218	0.000801971	1.10143	384.776
509.5000	-2.4979	0.000826857	1.1038	384.938
509.0000	-2.52012	0.000826335	1.1059	385.083
508.5000	-2.20049	0.000832853	1.10794	385.21
508.0000	-2.22162	0.000821861	1.11021	385.328
507.5000	-2.0968	0.000802456	1.11261	385.451
507.0000	-2.14543	0.000762947	1.11522	385.591
506.5000	-1.84539	0.000782701	1.11766	385.717
506.0000	-1.47095	0.000817038	1.11958	385.83
505.5000	-1.11614	0.000820436	1.12163	385.957
505.0000	-0.955216	0.000794293	1.12371	386.077
504.5000	-0.765024	0.000799328	1.12589	386.194
504.0000	-0.936916	0.000761728	1.12773	386.28
503.5000	-1.11331	0.000752488	1.12939	386.35
503.0000	-1.4733	0.000762093	1.1309	386.385
502.5000	-0.999201	0.0007926	1.13201	386.395
502.0000	-0.80562	0.000759825	1.13304	386.403
501.5000	-0.557926	0.000719108	1.13403	386.384
501.0000	-0.493907	0.000698024	1.13504	386.356
500.5000	-0.559898	0.00071238	1.13598	386.291
500.0000	-0.348738	0.000681225	1.1366	386.17
499.5000	-0.212497	0.00067683	1.13625	385.964
499.0000	-0.315785	0.000647519	1.13527	385.606
498.5000	-0.434918	0.000637403	1.13388	385.113
498.0000	-0.0692225	0.000612886	1.1323	384.501
497.5000	-0.128714	0.000553693	1.13094	383.737
497.0000	-0.11964	0.000535991	1.13043	382.966
496.5000	0.0976453	0.000542169	1.13115	382.26
496.0000	0.385149	0.000575374	1.13329	381.777
495.5000	0.642082	0.000573409	1.13533	381.428
495.0000	0.987926	0.000559013	1.13596	381.152
494.5000	1.37775	0.000546367	1.13567	380.887
494.0000	1.16018	0.00054525	1.13504	380.633
493.5000	1.05917	0.000567192	1.13409	380.341
493.0000	1.08547	0.000515826	1.13318	380.068
492.5000	1.58161	0.000538651	1.1322	379.788
492.0000	1.57196	0.000503734	1.13095	379.495
491.5000	1.35366	0.000474835	1.1296	379.239
491.0000	1.57477	0.000496805	1.12861	379.024
490.5000	1.57995	0.000501476	1.12733	378.817
490.0000	1.72771	0.00048323	1.12596	378.657
489.5000	1.83264	0.000488723	1.12422	378.52
489.0000	2.12442	0.00048849	1.12161	378.315
488.5000	2.26348	0.000479942	1.11764	377.972
488.0000	2.40477	0.000457259	1.11185	377.343
487.5000	2.35436	0.00044226	1.10557	376.485
487.0000	2.34007	0.000430349	1.10066	375.57
486.5000	2.28627	0.000406291	1.09547	374.494
486.0000	2.49054	0.000421468	1.09098	373.444
485.5000	2.75446	0.000391141	1.08834	372.481
485.0000	2.91215	0.000380175	1.08665	371.629
484.5000	2.9167	0.000384639	1.08431	370.898
484.0000	2.61916	0.000404575	1.08084	370.187
483.5000	3.21466	0.000406601	1.07717	369.548
483.0000	3.27239	0.000428835	1.07256	368.892
482.5000	3.55883	0.000427192	1.06791	368.328
482.0000	3.58812	0.000434313	1.06303	367.8
481.5000	3.53953	0.000445448	1.05805	367.26
481.0000	3.57189	0.000446161	1.05325	366.747
480.5000	3.4879	0.000427756	1.04827	366.264
480.0000	3.58403	0.000436664	1.04266	365.757
479.5000	3.38187	0.000451002	1.03623	365.168
479.0000	3.31432	0.000453409	1.02719	364.323
478.5000	3.43397	0.000449479	1.01783	363.253
478.0000	3.54767	0.000466338	1.01103	362.093
477.5000	3.28468	0.000450752	1.00853	361.232
477.0000	3.38431	0.000462309	1.00539	360.495
476.5000	3.88629	0.00048371	0.996989	359.466
476.0000	4.1604	0.000487268	0.986977	358.202
475.5000	4.4953	0.000459028	0.97682	356.71
475.0000	3.97786	0.000439198	0.96704	355.043
474.5000	4.41236	0.000425577	0.958352	353.308
474.0000	4.59922	0.000421689	0.949964	351.425
473.5000	4.60183	0.000421425	0.940675	349.268
473.0000	4.72262	0.000434873	0.931799	346.997
472.5000	4.55811	0.000448208	0.925276	344.749
472.0000	4.73829	0.000466634	0.92236	342.969
471.5000	4.86236	0.000460746	0.920319	341.562
471.0000	5.00694	0.000476211	0.918502	340.716
470.5000	5.09776	0.000467793	0.916846	340.199
470.0000	4.94849	0.000460709	0.913457	339.893
469.5000	4.84998	0.000455312	0.905296	339.399
469.0000	4.69394	0.000472548	0.891556	338.366
468.5000	4.3783	0.000434194	0.879224	337.063
468.0000	3.9488	0.000422736	0.870568	335.803
467.5000	3.59766	0.000431239	0.864624	334.794
467.0000	3.90838	0.000449188	0.860172	334.039
466.5000	4.03598	0.00046214	0.856239	333.512
466.0000	4.10172	0.000469441	0.851273	333.152
465.5000	3.94568	0.000456576	0.845877	333.009
465.0000	3.70699	0.000468099	0.839868	333.121
464.5000	3.69537	0.000457035	0.830965	333.247
464.0000	3.08924	0.000437141	0.81836	333.072
463.5000	3.15037	0.000431678	0.80398	332.504
463.0000	2.70351	0.000436314	0.790707	331.672
462.5000	2.5609	0.0004395	0.77972	330.745
462.0000	2.49943	0.000444217	0.770513	329.829
461.5000	2.68529	0.000451994	0.762583	329.068
461.0000	2.54645	0.000445062	0.754774	328.435
460.5000	2.57055	0.000444914	0.74645	327.91
460.0000	2.52174	0.000455338	0.73804	327.464
459.5000	2.76094	0.000449147	0.728702	327.02
459.0000	2.7681	0.000460127	0.717801	326.466
458.5000	2.46238	0.000446358	0.70623	325.802
458.0000	2.35136	0.000454951	0.693888	324.951
457.5000	2.28813	0.000460748	0.681403	323.875
457.0000	2.4557	0.000470278	0.670237	322.696
456.5000	2.3006	0.000486968	0.66132	321.617
456.0000	2.3359	0.000494962	0.651172	320.534
455.5000	2.16405	0.000502802	0.638042	319.184
455.0000	2.10276	0.000513446	0.626622	317.819
454.5000	2.21462	0.000513775	0.618687	316.664
454.0000	2.07351	0.000521994	0.611377	315.749
453.5000	2.15087	0.000541062	0.601943	314.937
453.0000	2.22569	0.000576361	0.591582	314.107
452.5000	2.35029	0.000601357	0.581506	313.261
452.0000	2.39046	0.000624774	0.571625	312.373
451.5000	2.17278	0.000645885	0.561303	311.448
451.0000	2.03001	0.000645883	0.551538	310.569
450.5000	1.97793	0.000651075	0.541252	309.625
450.0000	2.00993	0.000667772	0.532393	308.771
449.5000	1.88069	0.000673517	0.525173	308.111
449.0000	1.75376	0.00068243	0.518065	307.588
448.5000	1.81906	0.000689271	0.508363	306.966
448.0000	1.98069	0.000710388	0.498279	306.246
447.5000	2.11611	0.000734765	0.491137	305.677
447.0000	2.19255	0.000733841	0.48617	305.381
446.5000	2.08144	0.000749643	0.47918	305.116
446.0000	2.02803	0.00074808	0.467986	304.582
445.5000	1.84532	0.000738859	0.457055	303.8
445.0000	1.58435	0.000741472	0.447928	302.913
444.5000	1.37548	0.000730999	0.439328	302.001
444.0000	1.46712	0.00071606	0.43104	301.092
443.5000	1.33219	0.000722515	0.422871	300.127
443.0000	1.15304	0.00073838	0.416165	299.288
442.5000	1.23478	0.000749483	0.409827	298.494
442.0000	1.17115	0.000749078	0.404075	297.83
441.5000	1.1776	0.00075535	0.397384	297.109
441.0000	1.04483	0.00075187	0.391088	296.445
440.5000	0.902459	0.000761834	0.38477	295.782
440.0000	0.75697	0.000753349	0.378226	295.103
439.5000	0.740165	0.000746491	0.371491	294.415
439.0000	0.719437	0.000744346	0.364151	293.677
438.5000	0.667645	0.000750933	0.356592	292.941
438.0000	0.605151	0.000775176	0.348866	292.211
437.5000	0.788899	0.000766937	0.341641	291.519
437.0000	0.79955	0.000772887	0.334015	290.81
436.5000	0.895655	0.000779508	0.328039	290.22
436.0000	0.912312	0.000791136	0.322611	289.698
435.5000	0.751569	0.00078314	0.316639	289.192
435.0000	0.873049	0.000780268	0.310159	288.677
434.5000	0.736141	0.000784629	0.30363	288.161
434.0000	0.690645	0.000775607	0.297046	287.606
433.5000	0.623615	0.000789694	0.290957	287.068
433.0000	0.5349	0.000794847	0.284931	286.485
432.5000	0.520961	0.000799512	0.279238	285.928
432.0000	0.727071	0.000813603	0.273126	285.339
431.5000	0.607545	0.000814442	0.267206	284.757
431.0000	0.693627	0.000811822	0.261618	284.192
430.5000	0.594902	0.000819446	0.256023	283.616
430.0000	0.392858	0.000816258	0.250924	283.072
429.5000	0.380916	0.000818833	0.245583	282.512
429.0000	0.474354	0.00082293	0.24028	281.95
428.5000	0.531409	0.000824724	0.234954	281.395
428.0000	0.596953	0.000822332	0.229251	280.832
427.5000	0.612296	0.000819685	0.224394	280.325
427.0000	0.596544	0.000828689	0.219659	279.819
426.5000	0.640308	0.000840027	0.214934	279.306
426.0000	0.645844	0.000832782	0.21017	278.77
425.5000	0.708718	0.000820141	0.205539	278.208
425.0000	0.752843	0.000819757	0.200657	277.616
424.5000	0.800819	0.000814617	0.195916	277.004
424.0000	0.872715	0.000819131	0.191975	276.446
423.5000	0.556782	0.000805934	0.188826	275.963
423.0000	0.607365	0.000807329	0.185379	275.518
422.5000	0.531815	0.000811851	0.181687	275.11
422.0000	0.644388	0.000818817	0.177779	274.712
421.5000	0.678068	0.000810834	0.173936	274.329
421.0000	0.733807	0.000813434	0.170459	273.974
420.5000	0.688686	0.000815215	0.166893	273.615
420.0000	0.555315	0.000824543	0.163279	273.238
419.5000	0.37866	0.000811791	0.159682	272.844
419.0000	0.435075	0.000808272	0.156269	272.477
418.5000	0.459637	0.00081045	0.153007	272.159
418.0000	0.452326	0.000824651	0.14998	271.84
417.5000	0.454735	0.000849463	0.146847	271.53
417.0000	0.305013	0.000855677	0.144237	271.253
416.5000	0.362455	0.000848867	0.142142	271.057
416.0000	0.253595	0.000846463	0.13959	270.883
415.5000	0.277261	0.000847297	0.136492	270.676
415.0000	0.296418	0.000857246	0.133192	270.416
414.5000	0.269	0.000853923	0.130372	270.125
414.0000	0.183241	0.00085293	0.128114	269.842
413.5000	0.130624	0.000866736	0.125903	269.545
413.0000	-0.158311	0.000865646	0.123932	269.283
412.5000	-0.184886	0.000872287	0.122018	269.049
412.0000	-0.18959	0.000867204	0.120358	268.847
411.5000	0.0330466	0.000875507	0.118271	268.63
411.0000	0.0196744	0.000883762	0.116531	268.448
410.5000	-0.0174502	0.00088934	0.114963	268.273
410.0000	0.017667	0.000892675	0.113527	268.11
409.5000	0.0204645	0.000891483	0.112239	267.972
409.0000	0.0619528	0.000889675	0.110849	267.844
408.5000	0.0913607	0.000895636	0.109248	267.723
408.0000	0.0367403	0.000898395	0.10731	267.588
407.5000	0.132435	0.000907319	0.105347	267.445
407.0000	0.172324	0.000907719	0.103563	267.291
406.5000	0.20167	0.000899719	0.102056	267.146
406.0000	0.305817	0.000907348	0.100519	266.995
405.5000	0.313431	0.000903051	0.0988498	266.838
405.0000	0.44252	0.000890207	0.0971655	266.658
404.5000	0.582865	0.000892536	0.0955834	266.466
404.0000	0.42823	0.00087702	0.0943198	266.249
403.5000	0.449142	0.000895104	0.0931394	266.015
403.0000	0.318778	0.000889208	0.0923855	265.775
402.5000	0.37109	0.000888166	0.0912095	265.515
402.0000	0.295317	0.000881146	0.0905739	265.273
401.5000	0.243688	0.000882171	0.0900929	265.015
401.0000	0.0820253	0.000880407	0.0894022	264.778
400.5000	0.111749	0.000883432	0.0889903	264.576
400.0000	-0.0390937	0.000881396	0.0884394	264.394
399.5000	-0.117649	0.000877097	0.0883458	264.217
399.0000	-0.115819	0.000881027	0.0882516	264.073
398.5000	-0.217124	0.000868726	0.0880362	263.951
398.0000	-0.310634	0.000868587	0.0877377	263.848
397.5000	-0.370951	0.0008651	0.0876104	263.783
397.0000	-0.38744	0.000874866	0.0876554	263.73
396.5000	-0.476713	0.000870555	0.0875052	263.708
396.0000	-0.454739	0.000870177	0.0876042	263.724
395.5000	-0.45338	0.000860479	0.0871444	263.749
395.0000	-0.477624	0.000861502	0.0869512	263.812
394.5000	-0.402823	0.000866183	0.086883	263.9
394.0000	-0.411365	0.000872504	0.0868293	264.011
393.5000	-0.426158	0.000865359	0.0864499	264.136
393.0000	-0.452594	0.000853832	0.0859919	264.28
392.5000	-0.332048	0.000868277	0.0855179	264.399
392.0000	-0.246625	0.000866147	0.0854627	264.519
391.5000	-0.121504	0.000870559	0.0854871	264.612
391.0000	-0.107232	0.000863289	0.085536	264.709
390.5000	-0.174505	0.000872981	0.0853463	264.796
390.0000	-0.134388	0.000887771	0.0851621	264.873
389.5000	-0.0953415	0.000887106	0.0854177	264.95
389.0000	-0.134839	0.000881968	0.0856681	265.007
388.5000	-0.146194	0.000891193	0.085839	265.071
388.0000	-0.178716	0.000903139	0.0859072	265.133
387.5000	-0.315299	0.000910418	0.0863089	265.193
387.0000	-0.456325	0.000917196	0.0870559	265.24
386.5000	-0.569772	0.00090883	0.0876326	265.281
386.0000	-0.500819	0.000908368	0.0884376	265.327
385.5000	-0.542594	0.000898044	0.0892396	265.368
385.0000	-0.56609	0.000901192	0.0901687	265.414
384.5000	-0.534924	0.00090586	0.0910326	265.452
384.0000	-0.69376	0.000898417	0.0921333	265.5
383.5000	-0.629094	0.000906968	0.0928411	265.536
383.0000	-0.526315	0.000913494	0.0934973	265.58
382.5000	-0.480273	0.000914174	0.0942755	265.628
382.0000	-0.430012	0.000911531	0.0954069	265.668
381.5000	-0.407734	0.000902543	0.0968158	265.722
381.0000	-0.405264	0.000916286	0.0978521	265.771
380.5000	-0.37372	0.000907267	0.0988048	265.829
380.0000	-0.291759	0.000895258	0.0998801	265.877
379.5000	-0.308951	0.000904694	0.101102	265.935
379.0000	-0.313682	0.00089801	0.101915	265.988
378.5000	-0.273481	0.000898678	0.102548	266.054
378.0000	-0.168826	0.000906556	0.103225	266.117
377.5000	-0.139926	0.000903947	0.103771	266.156
377.0000	0.0689629	0.00092708	0.104221	266.187
376.5000	0.0495017	0.000934152	0.104906	266.216
376.0000	0.0248369	0.000933133	0.105555	266.235
375.5000	0.061532	0.000939015	0.106029	266.256
375.0000	0.0440516	0.000935728	0.106355	266.255
374.5000	-0.157939	0.000935697	0.106768	266.254
374.0000	-0.287709	0.000937113	0.107167	266.249
373.5000	-0.383403	0.000934254	0.107437	266.241
373.0000	-0.413755	0.000922625	0.107449	266.23
372.5000	-0.450253	0.000918825	0.107609	266.225
372.0000	-0.385704	0.000925397	0.107954	266.23
371.5000	-0.509812	0.000924101	0.108204	266.234
371.0000	-0.505172	0.000912518	0.108633	266.24
370.5000	-0.504601	0.000930179	0.109219	266.254
370.0000	-0.47216	0.000925884	0.109557	266.26
369.5000	-0.483224	0.000915519	0.109794	266.264
369.0000	-0.600807	0.000913268	0.11037	266.299
368.5000	-0.640746	0.000910848	0.111086	266.34
368.0000	-0.725355	0.000900344	0.111488	266.379
367.5000	-0.813473	0.000906059	0.112039	266.425
367.0000	-0.820459	0.000888652	0.112666	266.463
366.5000	-0.80113	0.000887798	0.113372	266.535
366.0000	-0.724367	0.000887257	0.114021	266.614
365.5000	-0.633671	0.000891112	0.114675	266.694
365.0000	-0.42356	0.000906971	0.115221	266.777
364.5000	-0.429006	0.000913657	0.115873	266.848
364.0000	-0.341242	0.000907755	0.11625	266.914
363.5000	-0.333828	0.000901925	0.117195	267.001
363.0000	-0.241586	0.000900484	0.117948	267.075
362.5000	-0.178914	0.000898603	0.118696	267.162
362.0000	-0.0407214	0.000890934	0.119235	267.233
361.5000	0.00690579	0.000899572	0.120028	267.311
361.0000	0.115976	0.000902497	0.120694	267.38
360.5000	-0.112918	0.000895102	0.121103	267.446
360.0000	-0.0871303	0.000884663	0.121677	267.517
359.5000	0.13573	0.000878069	0.122105	267.583
359.0000	0.257917	0.000871828	0.122433	267.66
358.5000	0.268352	0.000881637	0.122648	267.738
358.0000	0.0995994	0.000869613	0.122626	267.792
357.5000	0.21072	0.000881941	0.12265	267.851
357.0000	0.222632	0.000870501	0.122956	267.913
356.5000	0.20007	0.000865997	0.123585	267.975
356.0000	0.187535	0.000852628	0.123948	268.045
355.5000	0.208468	0.00084345	0.124219	268.109
355.0000	0.255143	0.000839384	0.12434	268.17
354.5000	0.257511	0.000840006	0.124393	268.228
354.0000	0.225816	0.000838596	0.124521	268.281
353.5000	0.0694697	0.000835458	0.124708	268.34
353.0000	0.0585525	0.000830151	0.124969	268.413
352.5000	-0.00563652	0.000833823	0.125142	268.475
352.0000	0.194777	0.00082858	0.125469	268.55
351.5000	0.333174	0.000838161	0.125709	268.614
351.0000	0.337038	0.00084199	0.12625	268.675
350.5000	0.326763	0.000833422	0.126873	268.734
350.0000	0.241108	0.000836621	0.127606	268.798
349.5000	0.300699	0.000836376	0.128544	268.873
349.0000	0.221151	0.000825169	0.129558	268.947
348.5000	0.204235	0.000817378	0.130619	269.018
348.0000	0.136467	0.000811601	0.131137	269.064
347.5000	0.0812251	0.000820615	0.132047	269.119
347.0000	-0.0544772	0.000822069	0.133037	269.178
346.5000	-0.0837501	0.00082818	0.133707	269.227
346.0000	-0.0320138	0.000821338	0.134425	269.286
345.5000	-0.089204	0.000806965	0.135242	269.339
345.0000	-0.180773	0.000796086	0.136312	269.411
344.5000	-0.0982086	0.000804828	0.137336	269.478
344.0000	-0.0870063	0.000794732	0.138411	269.534
343.5000	-0.143602	0.000786762	0.139145	269.583
343.0000	-0.145042	0.000766039	0.139832	269.637
342.5000	-0.137811	0.000768496	0.140477	269.7
342.0000	-0.147196	0.000769129	0.14111	269.765
341.5000	0.00152769	0.000768753	0.141805	269.827
341.0000	-0.0148304	0.000764072	0.14252	269.872
340.5000	0.0656398	0.000751831	0.143028	269.924
340.0000	0.0639826	0.000758302	0.143653	269.989
339.5000	0.14545	0.000741323	0.143992	270.051
339.0000	0.291481	0.000734779	0.144771	270.127
338.5000	0.379594	0.00073696	0.145704	270.211
338.0000	0.36842	0.000738456	0.146602	270.296
337.5000	0.37267	0.000747369	0.147352	270.377
337.0000	0.47842	0.000750372	0.147972	270.455
336.5000	0.619475	0.000741006	0.148707	270.524
336.0000	0.642025	0.000738686	0.149499	270.61
335.5000	0.670366	0.000739904	0.150203	270.687
335.0000	0.506188	0.00073189	0.151151	270.785
334.5000	0.501196	0.000725822	0.15195	270.88
334.0000	0.597371	0.000704465	0.152824	270.97
333.5000	0.747849	0.000701148	0.154081	271.063
333.0000	0.671249	0.000682414	0.155135	271.168
332.5000	0.66245	0.000677882	0.155925	271.276
332.0000	0.677729	0.000686148	0.156775	271.383
331.5000	0.761155	0.000679789	0.157866	271.492
331.0000	0.763095	0.000683179	0.15917	271.616
330.5000	0.71346	0.000683592	0.160025	271.72
330.0000	0.622619	0.000678909	0.160892	271.817
329.5000	0.658607	0.000672591	0.161913	271.929
329.0000	0.718842	0.000646878	0.16294	272.051
328.5000	0.777087	0.000641202	0.163857	272.151
328.0000	0.72648	0.000638388	0.164523	272.239
327.5000	0.551237	0.000622281	0.165502	272.338
327.0000	0.56216	0.000605124	0.166763	272.437
326.5000	0.631676	0.00060461	0.168128	272.544
326.0000	0.534061	0.000607452	0.169725	272.669
325.5000	0.392944	0.000609575	0.171197	272.802
325.0000	0.300561	0.000607888	0.172381	272.94
324.5000	0.431703	0.000618301	0.17375	273.08
324.0000	0.526157	0.000600325	0.175557	273.244
323.5000	0.493199	0.000586633	0.177456	273.405
323.0000	0.300718	0.000570916	0.178987	273.558
322.5000	0.227084	0.000560274	0.180417	273.706
322.0000	0.203324	0.000546725	0.181771	273.859
321.5000	0.386951	0.000527841	0.183485	274.022
321.0000	0.324447	0.00050996	0.185353	274.197
320.5000	0.439125	0.000494925	0.187224	274.366
320.0000	0.460541	0.000496494	0.188996	274.54
319.5000	0.403778	0.00047774	0.190744	274.712
319.0000	0.348562	0.00048482	0.192386	274.898
318.5000	0.446157	0.000487632	0.194052	275.096
318.0000	0.544824	0.000476179	0.195528	275.271
317.5000	0.824475	0.000470919	0.197007	275.428
317.0000	0.886101	0.000447234	0.198776	275.585
316.5000	0.850663	0.00043793	0.200601	275.734
316.0000	0.77637	0.000425153	0.202569	275.898
315.5000	0.719339	0.000425008	0.203945	276.042
315.0000	0.928352	0.000427278	0.205641	276.225
314.5000	0.990503	0.000426547	0.207372	276.412
314.0000	1.11421	0.000430566	0.209208	276.599
313.5000	1.23075	0.000420683	0.21119	276.795
313.0000	1.27103	0.000422792	0.213158	277.001
312.5000	1.20712	0.000425612	0.215008	277.207
312.0000	1.20959	0.000424457	0.217133	277.42
311.5000	1.20602	0.000422109	0.219257	277.644
311.0000	1.1763	0.00041748	0.221821	277.887
310.5000	1.18759	0.000404603	0.224125	278.146
310.0000	1.05357	0.000393958	0.22656	278.396
309.5000	0.988054	0.000387663	0.229234	278.664
309.0000	0.960737	0.000370935	0.232332	278.979
308.5000	1.17287	0.000373682	0.235271	279.307
308.0000	1.12253	0.000370784	0.23813	279.623
307.5000	1.10102	0.000347506	0.241534	279.984
307.0000	1.15058	0.000337257	0.245068	280.336
306.5000	1.19071	0.000342278	0.248963	280.723
306.0000	1.29744	0.00032991	0.253057	281.115
305.5000	1.15105	0.000318649	0.257375	281.555
305.0000	1.30698	0.000315722	0.261853	281.999
304.5000	1.33064	0.000305709	0.26702	282.493
304.0000	1.37873	0.000299381	0.272729	283.03
303.5000	1.27798	0.000288518	0.278491	283.573
303.0000	1.39186	0.000271214	0.284701	284.18
302.5000	1.52778	0.000260806	0.291224	284.823
302.0000	1.60787	0.000257312	0.29839	285.507
301.5000	1.61026	0.000255414	0.305991	286.229
301.0000	1.81437	0.000252987	0.31353	286.968
300.5000	1.87718	0.000251958	0.320367	287.642
300.0000	1.8737	0.000231554	0.32887	288.448
299.5000	1.98278	0.000219869	0.337067	289.237
299.0000	2.108	0.000216524	0.34509	290.026
298.5000	2.13105	0.000195037	0.353377	290.853
298.0000	2.09896	0.000180305	0.361405	291.646
297.5000	2.08883	0.000170572	0.369847	292.474
297.0000	2.15118	0.000167666	0.377737	293.208
296.5000	2.06636	0.000178963	0.385172	293.919
296.0000	2.01011	0.000183648	0.392487	294.625
295.5000	1.86521	0.000184723	0.399632	295.288
295.0000	1.89211	0.000191432	0.406251	295.887
294.5000	1.8753	0.000198127	0.41272	296.484
294.0000	1.8163	0.000215388	0.41886	297.093
293.5000	1.91442	0.000212053	0.423722	297.594
293.0000	1.97111	0.00022648	0.428813	298.111
292.5000	1.95859	0.000233942	0.433771	298.637
292.0000	1.78894	0.000242828	0.438141	299.118
291.5000	1.57263	0.000244786	0.442235	299.561
291.0000	1.61451	0.000257923	0.446228	299.992
290.5000	1.39284	0.000270998	0.450231	300.419
290.0000	1.5404	0.000316931	0.454117	300.816
289.5000	1.42992	0.000336834	0.457334	301.177
289.0000	1.46312	0.000356609	0.460493	301.539
288.5000	1.31571	0.000353328	0.463867	301.934
288.0000	1.20999	0.000358037	0.467162	302.326
287.5000	1.29204	0.000372007	0.470487	302.732
287.0000	1.29646	0.000386523	0.473783	303.176
286.5000	1.34405	0.00041195	0.476703	303.604
286.0000	1.39569	0.000419708	0.479831	304.016
285.5000	1.24927	0.000440032	0.483408	304.422
285.0000	1.2343	0.000444754	0.487192	304.853
284.5000	1.18278	0.000457355	0.490461	305.236
284.0000	1.054	0.000461268	0.494038	305.649
283.5000	0.968969	0.000470729	0.497864	306.074
283.0000	0.846265	0.000488308	0.501631	306.498
282.5000	0.945793	0.000518536	0.505839	306.963
282.0000	0.907501	0.00052413	0.509996	307.457
281.5000	0.775748	0.00051476	0.513931	307.931
281.0000	0.904473	0.000532957	0.518374	308.437
280.5000	0.936181	0.000544155	0.522932	308.979
280.0000	1.0685	0.000573829	0.52784	309.552
279.5000	1.04848	0.000596281	0.532928	310.155
279.0000	1.00729	0.000607611	0.538043	310.77
278.5000	1.11884	0.000627946	0.543877	311.452
278.0000	1.08112	0.00062543	0.550986	312.223
277.5000	1.11442	0.000658671	0.55778	312.962
277.0000	1.26386	0.000663834	0.565122	313.787
276.5000	1.15251	0.000693859	0.572805	314.663
276.0000	1.18836	0.000713654	0.580382	315.515
275.5000	1.4506	0.000723218	0.58951	316.509
275.0000	1.63692	0.000745856	0.599219	317.57
274.5000	1.74215	0.000759596	0.609229	318.686
274.0000	1.9225	0.000763886	0.620204	319.937
273.5000	1.76842	0.000793845	0.631138	321.146
273.0000	1.64007	0.000808944	0.643434	322.501
272.5000	1.57355	0.000820213	0.656363	323.935
272.0000	1.48729	0.000855063	0.670099	325.475
271.5000	1.46505	0.000865536	0.685429	327.196
271.0000	1.50217	0.000874007	0.701218	328.936
270.5000	1.48794	0.000881775	0.718052	330.777
270.0000	1.44421	0.000909444	0.735555	332.733
269.5000	1.29923	0.00092207	0.753794	334.812
269.0000	1.54113	0.00094899	0.772112	336.893
268.5000	1.40575	0.000982053	0.792487	339.203
268.0000	1.60573	0.0009955	0.814154	341.656
267.5000	1.22367	0.001006	0.836968	344.256
267.0000	0.968219	0.00103877	0.861698	347.126
266.5000	0.840518	0.00104927	0.887341	350.139
266.0000	1.09301	0.00107348	0.911855	352.984
265.5000	0.89278	0.00108499	0.938569	356.074
265.0000	1.26793	0.00111326	0.967131	359.444
264.5000	1.11099	0.00112126	0.99446	362.722
264.0000	1.17969	0.00114648	1.02199	366.05
263.5000	0.727069	0.00115465	1.05108	369.565
263.0000	0.820424	0.00118912	1.07733	372.767
262.5000	0.787384	0.00119888	1.10563	376.293
262.0000	0.616488	0.00119195	1.13202	379.658
261.5000	1.10709	0.00120135	1.15832	383.005
261.0000	1.19961	0.00119805	1.1833	386.163
260.5000	1.2477	0.00119779	1.20916	389.479
260.0000	1.08442	0.00120966	1.23457	392.786
259.5000	0.796185	0.00121849	1.25947	396.071
259.0000	0.774015	0.00121317	1.28401	399.368
258.5000	0.669638	0.00120772	1.30866	402.663
258.0000	0.580952	0.00120834	1.33327	405.977
257.5000	0.335588	0.00118461	1.35651	409.13
257.0000	0.219062	0.00118956	1.38101	412.48
256.5000	-0.0298879	0.00115968	1.40426	415.675
256.0000	0.0785156	0.00114554	1.42916	419.093
255.5000	0.719952	0.00111613	1.45429	422.551
255.0000	0.438581	0.00110933	1.47958	426.065
254.5000	0.65685	0.00107702	1.50372	429.444
254.0000	0.651997	0.0010473	1.52794	432.846
253.5000	0.976703	0.00107766	1.55512	436.625
253.0000	0.702702	0.00103579	1.57929	440.04
252.5000	-0.124339	0.000971889	1.61416	445.067
252.0000	-0.218767	0.000936097	1.64246	449.166
251.5000	-0.417101	0.000932654	1.66644	452.649
251.0000	-0.267442	0.000940559	1.69008	456.059
250.5000	-0.44747	0.000915299	1.71278	459.389
250.0000	-0.3798	0.000885377	1.73325	462.44
249.5000	-0.722855	0.000822079	1.75286	465.395
249.0000	-0.527813	0.000827546	1.77273	468.405
248.5000	-0.67075	0.000827721	1.79103	471.166
248.0000	-2.14732	0.000791124	1.80942	473.974
247.5000	-2.82168	0.00077544	1.82605	476.558
247.0000	-2.26612	0.000739307	1.84292	479.214
246.5000	-2.58993	0.00068328	1.85962	481.832
246.0000	-2.83363	0.000710824	1.87627	484.428
245.5000	-4.23611	0.000660555	1.89324	487.155
245.0000	-4.86746	0.000670492	1.91042	489.924
244.5000	-4.74431	0.000614568	1.92791	492.739
244.0000	-5.54942	0.000521275	1.94578	495.653
243.5000	-6.67813	0.000384175	1.9632	498.529
243.0000	-6.51013	0.000346535	1.98117	501.541
242.5000	-7.32671	0.000272857	2.002	505.057
242.0000	-8.00796	0.000264006	2.02117	508.304
241.5000	-9.08583	0.000203836	2.04386	512.155
241.0000	-9.10828	-1.05474E-005	2.06592	515.913
240.5000	-7.86628	-4.82204E-005	2.0917	520.393
240.0000	-7.00256	-9.03101E-006	2.11697	524.792
239.5000	-7.17795	-5.71278E-006	2.1488	530.35
239.0000	-6.50685	-1.63607E-006	2.17867	535.56
238.5000	-6.71713	-0.000183413	2.21251	541.506
238.0000	-6.9141	-0.00040535	2.25054	548.287
237.5000	-9.877	-0.000445287	2.28738	554.929
237.0000	-8.75098	-0.000427852	2.32856	562.415
236.5000	-9.53933	-0.00043861	2.37243	570.461
236.0000	-10.8768	-0.000599776	2.41644	578.597
235.5000	-10.1849	-0.000640179	2.46998	588.653
235.0000	-8.12898	-0.000686776	2.50814	595.904
234.5000	-7.91033	-0.000718422	2.55016	603.955
234.0000	-11.2899	-0.00108947	2.59641	612.896
233.5000	-10.6318	-0.000937112	2.64985	623.322
233.0000	-9.13091	-0.00113123	2.70794	634.815
232.5000	-11.2003	-0.00110165	2.76473	646.269
232.0000	-12.2278	-0.00120559	2.832	660.104
231.5000	-10.7128	-0.00127468	2.88798	671.854
231.0000	-10.7499	-0.00140176	2.9504	685.194
230.5000	-10.1593	-0.00144254	3.01238	698.773
230.0000	-10.9955	-0.00125721	3.07029	711.792
229.5000	-9.89644	-0.00111288	3.13003	725.495
229.0000	-7.18251	-0.00129159	3.18795	739.106
228.5000	-1.73432	-0.00132261	3.24349	752.44
228.0000	-1.32757	-0.00118809	3.29363	764.78
227.5000	0.246876	-0.0011357	3.34278	777.315
227.0000	0.302108	-0.00101886	3.38859	789.339
226.5000	0.927755	-0.000732354	3.43252	801.249
226.0000	-2.64898	-0.000529179	3.46864	811.432
225.5000	1.7058	-0.0005649	3.50257	821.424
225.0000	2.5906	-0.000927976	3.53186	830.62
224.5000	2.37186	-0.000660894	3.55672	838.972
224.0000	5.98378	-0.000342268	3.57723	846.396
223.5000	7.38521	-0.000321133	3.59381	852.911
223.0000	4.29599	-0.00011341	3.60649	858.534
222.5000	1.70329	-0.000142339	3.61638	864.195
222.0000	2.59728	0.000172525	3.62097	868.382
221.5000	4.03768	0.000109091	3.62181	871.879
221.0000	4.27949	0.000273848	3.61991	874.273
220.5000	-0.629612	0.000440496	3.61561	876.132
220.0000	3.26866	0.000172495	3.6091	877.648

##### Extended Information
[Comments]
Sample name	JS187+JS190_5E-5_H2O_44-56
Comment
User
Division
Company	Labo systeme complexes hors equilibre

[Detailed Information]
Creation date	1/23/2024 12:19 PM

Data array type	Linear data array * 4
Horizontal axis	Wavelength [nm]
Vertical axis(1)	CD [mdeg]
Vertical axis(2)	LD [dOD]
Vertical axis(3)	Abs
Vertical axis(4)	HT [V]
Start	700 nm
End	220 nm
Data interval	0.5 nm
Data points	961     

[Measurement Information]
Instrument name	CD Jasco
Model name	J-1500
Serial No.	A005261638

Detector	PM-539
Detector S/N	A0052PM539
  Lock-in amp.	X mode
  HT volt	Auto

Detector	EXPML-535
Detector S/N	A0001
  Lock-in amp.	X mode
  HT volt	Auto

Measurement date	1/23/2024 12:19 PM

Overload detect	1
Photometric mode	CD, LD, Abs, HT
Measure range	700 - 220 nm
Data pitch	0.5 nm
CD scale	200 mdeg/1.0 dOD
FL scale	200 mdeg/1.0 dOD
D.I.T.	1 sec
Bandwidth	1.00 nm
Start mode	Immediately
Scanning speed	500 nm/min
Baseline correction	Baseline
Shutter control	Auto


