TITLE	JS187+JS190_5E-5_H2O_52-48
DATA TYPE	
ORIGIN	JASCO
OWNER	
DATE	24/01/23
TIME	10:42:08
SPECTROMETER/DATA SYSTEM	
LOCALE	1033
RESOLUTION	
DELTAX	-0.5
XUNITS	NANOMETERS
YUNITS	CD [mdeg]
Y2UNITS	LD [dOD]
Y3UNITS	ABSORBANCE
Y4UNITS	HT [V]
FIRSTX	  700.0000
LASTX	  220.0000
NPOINTS	     961
FIRSTY	     1.44117
MAXY	     2.11121
MINY	   -14.26890
XYDATA
700.0000	1.44117	-0.000156406	-0.0559154	299.035
699.5000	1.2518	-0.000164729	-0.0569343	298.737
699.0000	1.24104	-0.000145683	-0.0581277	298.378
698.5000	1.41466	-0.000114291	-0.058901	297.975
698.0000	1.39481	-0.00011918	-0.0600829	297.535
697.5000	1.14939	-0.000102223	-0.0617269	297.076
697.0000	1.14518	-8.20136E-005	-0.0636984	296.569
696.5000	1.20525	-8.41189E-005	-0.0649206	296.052
696.0000	1.07896	-7.82069E-005	-0.0654155	295.486
695.5000	1.16725	-0.00011001	-0.0656613	294.945
695.0000	1.29131	-0.000102231	-0.0651761	294.474
694.5000	1.09773	-0.000120304	-0.0646864	294.024
694.0000	1.1952	-0.000111265	-0.0630381	293.606
693.5000	1.28568	-0.000100278	-0.0609397	293.234
693.0000	1.23836	-9.98094E-005	-0.0582505	292.916
692.5000	1.15552	-0.000115642	-0.0555497	292.622
692.0000	1.22877	-8.62081E-005	-0.0527967	292.372
691.5000	1.15667	-0.000110865	-0.0496876	292.165
691.0000	1.21283	-0.000112967	-0.0468744	291.949
690.5000	1.18506	-0.00010478	-0.0449408	291.755
690.0000	1.1057	-0.00011297	-0.0432893	291.581
689.5000	0.999486	-0.000118003	-0.0413569	291.457
689.0000	0.864758	-0.000122512	-0.038421	291.408
688.5000	0.893002	-0.00011551	-0.0352238	291.462
688.0000	0.865175	-0.000102363	-0.0312541	291.615
687.5000	0.848762	-8.63088E-005	-0.0269434	291.847
687.0000	0.682029	-7.61562E-005	-0.0234187	292.083
686.5000	0.611752	-9.42614E-005	-0.0206607	292.338
686.0000	0.610708	-0.000114135	-0.0194907	292.576
685.5000	0.71861	-0.00011197	-0.019359	292.82
685.0000	0.478831	-0.000127513	-0.0196234	293.062
684.5000	0.383604	-0.000143926	-0.0205869	293.282
684.0000	0.518154	-0.000140071	-0.0219032	293.506
683.5000	0.433147	-0.000136281	-0.0229266	293.72
683.0000	0.400357	-0.000142119	-0.0239069	293.95
682.5000	0.186453	-0.000162434	-0.0241953	294.201
682.0000	0.433233	-0.000169306	-0.0244266	294.494
681.5000	0.508001	-0.000171536	-0.0241997	294.783
681.0000	0.673465	-0.000159047	-0.0241166	295.071
680.5000	0.945258	-0.000153379	-0.0246864	295.275
680.0000	0.864093	-0.000166084	-0.0268201	295.401
679.5000	0.750471	-0.000187784	-0.029509	295.469
679.0000	0.805676	-0.000188872	-0.0331244	295.496
678.5000	0.842184	-0.000191078	-0.0355368	295.501
678.0000	0.933604	-0.000162121	-0.0376667	295.494
677.5000	0.998971	-0.000161296	-0.0389804	295.474
677.0000	0.867879	-0.000133992	-0.0395324	295.453
676.5000	1.07558	-0.000124617	-0.0393649	295.429
676.0000	1.03115	-0.000128014	-0.0391441	295.408
675.5000	0.956424	-0.000144287	-0.038821	295.395
675.0000	0.913152	-0.000150859	-0.0381887	295.397
674.5000	0.964529	-0.000145918	-0.0371896	295.404
674.0000	0.79632	-0.000118397	-0.0361364	295.417
673.5000	0.67307	-0.000107711	-0.0349847	295.44
673.0000	0.474432	-0.00010207	-0.0348224	295.464
672.5000	0.191386	-0.000108387	-0.0345113	295.513
672.0000	0.251368	-9.11238E-005	-0.0338421	295.572
671.5000	0.488644	-8.70069E-005	-0.0327859	295.624
671.0000	0.235389	-0.000102125	-0.0317405	295.679
670.5000	0.271037	-8.89189E-005	-0.0305535	295.73
670.0000	0.150774	-7.30027E-005	-0.0294736	295.793
669.5000	0.298958	-7.13296E-005	-0.0288728	295.864
669.0000	0.432476	-8.03885E-005	-0.0282453	295.936
668.5000	0.520481	-9.52213E-005	-0.0275231	296.02
668.0000	0.344171	-0.000105854	-0.0268977	296.128
667.5000	0.419147	-8.96062E-005	-0.0265367	296.227
667.0000	0.369123	-8.29682E-005	-0.0263468	296.337
666.5000	0.317247	-7.83064E-005	-0.0260846	296.453
666.0000	0.324594	-6.73724E-005	-0.0265104	296.579
665.5000	0.378767	-7.25125E-005	-0.0265317	296.703
665.0000	0.460145	-8.78541E-005	-0.0258114	296.822
664.5000	0.788774	-8.11663E-005	-0.0248543	296.935
664.0000	0.558631	-0.000101484	-0.0246786	297.039
663.5000	0.437354	-0.000101195	-0.0254545	297.145
663.0000	0.645949	-9.36189E-005	-0.0256076	297.23
662.5000	0.784648	-7.29269E-005	-0.0257583	297.321
662.0000	0.671507	-0.000101571	-0.0260473	297.393
661.5000	0.434843	-0.00011373	-0.0258181	297.453
661.0000	0.165064	-0.000117905	-0.0259993	297.5
660.5000	0.22785	-0.000109152	-0.026489	297.526
660.0000	0.559163	-0.00010374	-0.026698	297.544
659.5000	0.536333	-8.4477E-005	-0.0272931	297.558
659.0000	0.650911	-8.63878E-005	-0.0277276	297.551
658.5000	0.685748	-7.80743E-005	-0.0279205	297.533
658.0000	0.581528	-8.74094E-005	-0.027947	297.48
657.5000	0.767023	-9.00314E-005	-0.0285892	297.403
657.0000	0.536465	-8.02319E-005	-0.0283241	297.309
656.5000	0.59266	-8.17178E-005	-0.0293539	297.177
656.0000	0.716965	-6.77846E-005	-0.0303379	297.025
655.5000	1.03139	-6.71686E-005	-0.0296955	296.876
655.0000	0.95886	-6.64274E-005	-0.0295747	296.73
654.5000	1.03948	-6.62356E-005	-0.0300016	296.581
654.0000	0.853622	-6.66994E-005	-0.0295531	296.437
653.5000	0.932182	-5.23136E-005	-0.028265	296.314
653.0000	1.0781	-3.87774E-005	-0.02662	296.205
652.5000	1.10742	-2.65968E-005	-0.0248255	296.136
652.0000	1.27671	-1.73295E-005	-0.022895	296.089
651.5000	1.04655	-1.21728E-005	-0.0204846	296.069
651.0000	1.03179	-3.4857E-005	-0.0176421	296.074
650.5000	1.11128	-2.09967E-005	-0.0155735	296.102
650.0000	1.42695	-4.56773E-005	-0.0130446	296.158
649.5000	1.37311	-3.60302E-005	-0.0109847	296.244
649.0000	1.3755	-3.80489E-005	-0.00878155	296.344
648.5000	1.61419	-6.01949E-005	-0.00731634	296.483
648.0000	1.60696	-5.6521E-005	-0.0053433	296.66
647.5000	1.4897	-4.59373E-005	-0.00369657	296.832
647.0000	1.41737	-3.77658E-005	-0.00258469	297.026
646.5000	1.31961	-5.63973E-005	-0.0016484	297.224
646.0000	1.55075	-4.85178E-005	0.000110307	297.419
645.5000	1.59676	-4.04343E-005	0.000815116	297.586
645.0000	1.64785	-4.76247E-005	0.000331699	297.736
644.5000	1.78379	-4.69421E-005	8.65334E-005	297.863
644.0000	1.6486	-4.97853E-005	-8.65061E-005	297.958
643.5000	1.60126	-6.86649E-005	-0.000695863	298.025
643.0000	1.67548	-7.28432E-005	-0.00126591	298.067
642.5000	1.85276	-6.19946E-005	-0.00166108	298.098
642.0000	1.90712	-4.00221E-005	-0.0019585	298.101
641.5000	1.77912	-3.76731E-005	-0.00238025	298.084
641.0000	1.84866	-4.11865E-005	-0.00240487	298.059
640.5000	1.56776	-3.13604E-005	-0.00203645	298.02
640.0000	1.44472	-2.59574E-005	-0.00136214	297.977
639.5000	1.2844	-4.3312E-005	-0.000434204	297.916
639.0000	1.17189	-4.42342E-005	0.000177749	297.84
638.5000	1.03605	-4.37964E-005	0.00119554	297.75
638.0000	1.02534	-3.42937E-005	0.00165066	297.661
637.5000	0.973113	-2.20473E-005	0.00184227	297.564
637.0000	0.952952	-1.5577E-005	0.00303266	297.477
636.5000	1.07221	-2.61074E-005	0.00395009	297.393
636.0000	1.14031	-4.21308E-005	0.0043796	297.33
635.5000	1.32745	-2.36899E-005	0.00491645	297.268
635.0000	1.26283	-7.65007E-006	0.00589799	297.213
634.5000	0.854089	-2.47364E-005	0.00680353	297.164
634.0000	0.620209	-3.56935E-005	0.0076322	297.12
633.5000	0.57928	-3.77153E-005	0.007949	297.065
633.0000	0.506298	-3.90754E-005	0.00895792	297.029
632.5000	0.639374	-3.7152E-005	0.00914951	296.978
632.0000	0.895356	-3.76655E-005	0.00945215	296.937
631.5000	1.11131	-2.41603E-005	0.01007	296.898
631.0000	1.33389	-2.67395E-005	0.0106022	296.856
630.5000	1.33433	-3.56082E-005	0.0110155	296.804
630.0000	1.25543	-3.21401E-005	0.0115115	296.753
629.5000	1.20516	-4.23364E-005	0.0120886	296.696
629.0000	1.39899	-3.19162E-005	0.0125245	296.648
628.5000	1.34994	-4.49972E-005	0.0127426	296.599
628.0000	1.37322	-2.81759E-005	0.0131922	296.545
627.5000	1.24276	-2.38681E-005	0.0138565	296.479
627.0000	0.950379	-4.26286E-005	0.0139424	296.408
626.5000	0.924859	-4.41009E-005	0.0137712	296.341
626.0000	1.07837	-3.92823E-005	0.0137039	296.276
625.5000	1.24091	-3.37616E-005	0.0143867	296.223
625.0000	1.25701	-4.80103E-005	0.0152458	296.181
624.5000	1.29443	-4.06875E-005	0.0160942	296.14
624.0000	1.29984	-3.01122E-005	0.016921	296.117
623.5000	1.22221	-2.51869E-005	0.0178185	296.105
623.0000	0.862337	-4.8555E-005	0.018592	296.097
622.5000	0.747715	-2.52126E-005	0.0197319	296.121
622.0000	0.868994	-2.2394E-005	0.0205736	296.153
621.5000	0.849615	-1.73869E-005	0.021457	296.196
621.0000	0.945373	-2.71473E-005	0.02246	296.254
620.5000	0.809408	-3.93659E-005	0.0230379	296.308
620.0000	0.898474	-3.1941E-005	0.0235945	296.382
619.5000	0.726409	-4.75736E-005	0.0243564	296.467
619.0000	0.581003	-5.30952E-005	0.0256665	296.577
618.5000	0.774445	-5.06458E-005	0.0274611	296.708
618.0000	0.500205	-5.64088E-005	0.0292374	296.839
617.5000	0.692604	-5.08381E-005	0.0299725	296.975
617.0000	0.574495	-4.35075E-005	0.0304831	297.121
616.5000	0.611511	-4.57493E-005	0.0309729	297.26
616.0000	0.618598	-4.56022E-005	0.0318634	297.394
615.5000	0.633414	-4.18664E-005	0.0323125	297.525
615.0000	0.753147	-3.00857E-005	0.0326112	297.649
614.5000	0.914017	-2.54796E-005	0.03279	297.78
614.0000	0.889954	-3.4463E-005	0.0330804	297.917
613.5000	0.907116	-2.8534E-005	0.0336749	298.061
613.0000	1.02435	-8.40316E-006	0.0340229	298.198
612.5000	1.06108	6.99217E-007	0.0345614	298.344
612.0000	1.29005	8.31378E-006	0.0349962	298.468
611.5000	1.22344	2.36932E-005	0.0357665	298.594
611.0000	1.13468	2.2008E-005	0.0361024	298.729
610.5000	1.38825	3.86542E-005	0.0362955	298.857
610.0000	1.51418	4.07163E-005	0.0362501	298.969
609.5000	1.59816	4.35864E-005	0.0367761	299.075
609.0000	1.49412	4.1952E-005	0.0371763	299.165
608.5000	1.61323	5.29979E-005	0.0381749	299.277
608.0000	1.48424	6.09683E-005	0.0387143	299.376
607.5000	1.28905	4.53813E-005	0.0387316	299.464
607.0000	1.33729	4.3681E-005	0.0393127	299.57
606.5000	1.3138	3.76966E-005	0.0399009	299.665
606.0000	1.25066	5.90262E-005	0.0410532	299.747
605.5000	1.199	4.60154E-005	0.0417786	299.817
605.0000	1.12867	5.36517E-005	0.0429447	299.895
604.5000	1.08077	4.09888E-005	0.0439135	299.976
604.0000	0.673788	5.42398E-005	0.045123	300.053
603.5000	0.521178	4.58605E-005	0.0464977	300.129
603.0000	0.767211	3.99559E-005	0.0473776	300.198
602.5000	0.804315	1.96429E-005	0.0487176	300.264
602.0000	0.935919	3.0397E-005	0.0500941	300.317
601.5000	0.740735	2.59812E-005	0.0514662	300.382
601.0000	0.730322	2.29813E-005	0.0529232	300.454
600.5000	0.845314	3.71578E-005	0.0548791	300.522
600.0000	0.876896	4.76741E-005	0.056476	300.579
599.5000	0.784695	6.79399E-005	0.0588521	300.625
599.0000	0.876892	7.85871E-005	0.0608695	300.672
598.5000	0.808877	8.11039E-005	0.0633876	300.709
598.0000	0.918302	8.21109E-005	0.0655633	300.752
597.5000	0.943345	8.67991E-005	0.0675892	300.799
597.0000	1.08324	6.9473E-005	0.0698847	300.843
596.5000	0.913744	7.09846E-005	0.0721351	300.858
596.0000	1.2533	8.48379E-005	0.0745631	300.885
595.5000	1.37754	6.25394E-005	0.0769902	300.927
595.0000	1.28043	6.44668E-005	0.0796498	300.952
594.5000	1.53154	7.85723E-005	0.0824014	300.987
594.0000	1.45616	7.99107E-005	0.084752	301.035
593.5000	1.57602	8.93371E-005	0.0876724	301.083
593.0000	1.72224	0.000114952	0.0910143	301.138
592.5000	2.03775	0.000125917	0.0938508	301.212
592.0000	2.0101	0.000131905	0.0966244	301.301
591.5000	1.87262	0.000111079	0.0991797	301.399
591.0000	1.95577	0.000114718	0.102359	301.511
590.5000	1.98261	0.000113229	0.105357	301.647
590.0000	2.11121	0.000113011	0.108553	301.792
589.5000	2.04638	0.00010812	0.112065	301.953
589.0000	1.87462	0.00012816	0.115776	302.137
588.5000	2.0396	0.000127482	0.119526	302.35
588.0000	1.72825	0.000116838	0.123889	302.607
587.5000	1.68655	0.000132983	0.128169	302.871
587.0000	1.80246	0.000144974	0.132653	303.191
586.5000	1.64718	0.000140822	0.136872	303.495
586.0000	1.48403	0.000153937	0.141866	303.824
585.5000	1.50451	0.000166878	0.146602	304.179
585.0000	1.48972	0.00013787	0.151252	304.543
584.5000	1.30272	0.000132453	0.155959	304.913
584.0000	1.24948	0.000127645	0.161382	305.329
583.5000	1.22286	0.000125683	0.167151	305.775
583.0000	1.29123	0.000129868	0.173522	306.258
582.5000	1.30089	0.000160992	0.179976	306.789
582.0000	1.10602	0.000158724	0.186548	307.328
581.5000	1.00108	0.000196309	0.193536	307.913
581.0000	1.07399	0.000201105	0.201162	308.535
580.5000	1.02161	0.00022536	0.208873	309.172
580.0000	1.08724	0.000234464	0.216439	309.815
579.5000	0.966787	0.000236327	0.22425	310.498
579.0000	1.08739	0.000232293	0.232478	311.211
578.5000	1.05695	0.000245749	0.24124	311.936
578.0000	1.22821	0.000253453	0.250386	312.731
577.5000	1.20405	0.000270257	0.259593	313.59
577.0000	1.15402	0.000303083	0.269747	314.457
576.5000	1.18096	0.000312345	0.280935	315.422
576.0000	1.21714	0.000311412	0.291875	316.371
575.5000	0.863182	0.000309574	0.303683	317.393
575.0000	0.977309	0.000344431	0.314499	318.377
574.5000	0.887117	0.000367556	0.326527	319.451
574.0000	0.884649	0.000354816	0.33882	320.526
573.5000	0.835314	0.000359544	0.351434	321.648
573.0000	0.970618	0.00036489	0.364436	322.858
572.5000	0.758783	0.000360222	0.376913	324.028
572.0000	0.636749	0.000371522	0.391087	325.379
571.5000	0.714648	0.00037239	0.405325	326.716
571.0000	0.674549	0.000412869	0.420962	328.141
570.5000	0.433097	0.000405595	0.436603	329.625
570.0000	0.325701	0.000410036	0.451829	331.086
569.5000	-0.0920611	0.000417918	0.468457	332.63
569.0000	-0.421266	0.000417301	0.485216	334.189
568.5000	-0.574509	0.000427056	0.500593	335.679
568.0000	-0.640529	0.000444697	0.51647	337.255
567.5000	-0.590656	0.000467739	0.532545	338.849
567.0000	-0.662163	0.00047301	0.548536	340.401
566.5000	-0.727868	0.000451097	0.564453	341.933
566.0000	-0.791048	0.000462228	0.580111	343.443
565.5000	-0.76943	0.000475338	0.595193	344.933
565.0000	-0.78123	0.000482782	0.610195	346.386
564.5000	-0.812076	0.000490254	0.625036	347.818
564.0000	-0.99924	0.000473775	0.63893	349.125
563.5000	-1.14754	0.000472753	0.651961	350.38
563.0000	-1.57158	0.000472975	0.664965	351.666
562.5000	-1.71697	0.000450702	0.677083	352.839
562.0000	-1.44907	0.000478162	0.688602	353.945
561.5000	-1.30047	0.000482695	0.700944	355.09
561.0000	-1.24285	0.000466404	0.712077	356.151
560.5000	-1.00809	0.000474381	0.722511	357.151
560.0000	-1.06582	0.00047508	0.732376	358.061
559.5000	-1.05436	0.000492155	0.741696	358.867
559.0000	-1.19861	0.000516082	0.7495	359.536
558.5000	-1.23066	0.000500601	0.75604	360.107
558.0000	-1.38303	0.000496406	0.761326	360.553
557.5000	-1.35437	0.0005082	0.76635	360.935
557.0000	-1.57723	0.000504504	0.770674	361.226
556.5000	-1.41026	0.000518953	0.773819	361.44
556.0000	-1.42432	0.00054294	0.775623	361.564
555.5000	-1.4062	0.000560828	0.777093	361.614
555.0000	-0.858908	0.000540991	0.777917	361.571
554.5000	-0.953332	0.000520364	0.778346	361.443
554.0000	-0.623998	0.000538276	0.777506	361.239
553.5000	-0.881238	0.000517499	0.775962	360.955
553.0000	-1.1696	0.000528545	0.774104	360.648
552.5000	-1.26421	0.000537227	0.772287	360.291
552.0000	-1.15555	0.000514011	0.769712	359.846
551.5000	-1.32783	0.00050854	0.767109	359.412
551.0000	-1.0881	0.000493566	0.763681	358.933
550.5000	-1.10765	0.000469282	0.760017	358.411
550.0000	-1.31253	0.000495299	0.756353	357.861
549.5000	-1.3686	0.000480478	0.752936	357.317
549.0000	-1.12253	0.000492908	0.74884	356.766
548.5000	-0.981505	0.000479609	0.744923	356.246
548.0000	-1.24979	0.000447767	0.741742	355.678
547.5000	-0.919609	0.00042191	0.73893	355.176
547.0000	-1.08168	0.000430714	0.736215	354.664
546.5000	-0.848857	0.000473807	0.733453	354.214
546.0000	-1.15964	0.000483789	0.730281	353.795
545.5000	-1.09671	0.000472111	0.728463	353.408
545.0000	-1.25355	0.000470121	0.726971	353.105
544.5000	-1.15099	0.000451191	0.725755	352.82
544.0000	-1.29441	0.000451783	0.72464	352.594
543.5000	-1.25521	0.000477609	0.724031	352.409
543.0000	-1.03479	0.000465271	0.723931	352.263
542.5000	-0.933111	0.000486297	0.724706	352.179
542.0000	-1.06946	0.000483653	0.725541	352.139
541.5000	-0.587321	0.000471882	0.726841	352.169
541.0000	-0.797288	0.000480745	0.728332	352.243
540.5000	-0.92831	0.000491382	0.731076	352.375
540.0000	-0.734772	0.000481484	0.734369	352.55
539.5000	-0.632717	0.000490423	0.737844	352.8
539.0000	-0.563126	0.000530113	0.741529	353.11
538.5000	-0.420077	0.000526316	0.74601	353.485
538.0000	-0.401193	0.000534336	0.751039	353.874
537.5000	-0.244626	0.000539555	0.756636	354.336
537.0000	-0.107356	0.000558128	0.762523	354.854
536.5000	0.0177807	0.000577391	0.768695	355.388
536.0000	0.0150262	0.000583106	0.775789	356.003
535.5000	0.26209	0.000607476	0.782995	356.641
535.0000	-0.138477	0.000608004	0.79099	357.347
534.5000	-0.408374	0.000605874	0.798746	358.04
534.0000	-0.0407531	0.00060331	0.807185	358.813
533.5000	-0.0997296	0.000609947	0.815755	359.625
533.0000	0.0764352	0.000606271	0.823998	360.415
532.5000	0.249767	0.000595781	0.832633	361.256
532.0000	0.0574052	0.000594594	0.841985	362.162
531.5000	0.0522831	0.000607216	0.851628	363.087
531.0000	-0.0692537	0.000609822	0.862381	364.07
530.5000	-0.210661	0.000615077	0.872353	365.012
530.0000	0.0397074	0.000616075	0.882694	366.016
529.5000	-0.369147	0.000631233	0.892705	366.985
529.0000	-0.654942	0.000613899	0.902394	367.89
528.5000	-0.843302	0.00059708	0.911942	368.805
528.0000	-0.737716	0.000613604	0.921076	369.679
527.5000	-0.625696	0.000613888	0.930628	370.573
527.0000	-1.05518	0.000609958	0.941023	371.548
526.5000	-0.920128	0.000606805	0.950501	372.462
526.0000	-0.858339	0.000619469	0.960511	373.402
525.5000	-0.923312	0.000635588	0.970084	374.293
525.0000	-1.02298	0.000667639	0.979432	375.165
524.5000	-1.29558	0.00070597	0.9881	375.949
524.0000	-1.33772	0.000715028	0.995952	376.648
523.5000	-1.7327	0.000743554	1.00364	377.365
523.0000	-1.74608	0.000750877	1.01094	378.04
522.5000	-1.77994	0.000735537	1.01746	378.658
522.0000	-1.59438	0.000754366	1.02418	379.267
521.5000	-1.7592	0.000752283	1.03097	379.86
521.0000	-1.84749	0.000742061	1.03724	380.415
520.5000	-1.49691	0.000783358	1.0432	380.937
520.0000	-1.53538	0.000794992	1.04842	381.388
519.5000	-1.38317	0.00080234	1.05376	381.82
519.0000	-1.40324	0.000779517	1.05855	382.221
518.5000	-1.12631	0.000793269	1.06264	382.577
518.0000	-1.22336	0.000798201	1.06708	382.936
517.5000	-1.2155	0.000787885	1.07148	383.28
517.0000	-1.01539	0.000769677	1.07588	383.598
516.5000	-1.07506	0.000770149	1.08015	383.897
516.0000	-0.796471	0.0007551	1.0841	384.184
515.5000	-0.681502	0.000736814	1.08746	384.456
515.0000	-0.616266	0.000712245	1.09062	384.694
514.5000	-0.618241	0.000698361	1.09368	384.936
514.0000	-0.614747	0.000687726	1.09657	385.148
513.5000	-0.578519	0.000664931	1.09962	385.368
513.0000	-0.133267	0.00067103	1.10217	385.573
512.5000	-0.236239	0.00067367	1.10524	385.808
512.0000	-0.256715	0.000664054	1.10806	386.006
511.5000	-0.547552	0.000656382	1.1106	386.216
511.0000	-0.343261	0.000660383	1.11319	386.413
510.5000	-0.73005	0.000636232	1.11593	386.598
510.0000	-0.695314	0.000642497	1.1187	386.79
509.5000	-0.5545	0.000640131	1.12112	386.959
509.0000	-0.528141	0.000675329	1.12331	387.117
508.5000	-0.381421	0.00066198	1.12541	387.251
508.0000	-0.327808	0.000611408	1.12795	387.401
507.5000	-0.350741	0.000641315	1.1304	387.53
507.0000	-0.331769	0.000686787	1.13313	387.685
506.5000	-0.395066	0.000717791	1.13568	387.824
506.0000	-0.436301	0.000702041	1.13774	387.954
505.5000	-0.446297	0.000676251	1.13977	388.079
505.0000	-0.658146	0.000650422	1.14189	388.205
504.5000	-1.14955	0.000615113	1.14414	388.33
504.0000	-0.921815	0.00058618	1.14612	388.433
503.5000	-0.605552	0.000601205	1.14785	388.512
503.0000	-0.664629	0.000609789	1.14947	388.559
502.5000	-0.764597	0.000609282	1.15073	388.587
502.0000	-0.831397	0.000626467	1.15201	388.624
501.5000	-1.50734	0.000592686	1.1531	388.618
501.0000	-0.941074	0.000568596	1.15425	388.605
500.5000	-0.620089	0.000553794	1.15527	388.549
500.0000	-0.921855	0.000542263	1.15595	388.434
499.5000	-0.989594	0.000556985	1.15565	388.234
499.0000	-0.985092	0.000520234	1.15499	387.913
498.5000	-0.525018	0.000521219	1.15379	387.438
498.0000	-0.63554	0.000530517	1.15225	386.828
497.5000	-0.789845	0.000538612	1.15105	386.078
497.0000	-0.953963	0.000555947	1.15047	385.295
496.5000	-0.60534	0.000608771	1.15089	384.551
496.0000	-0.726774	0.000632069	1.15259	384.015
495.5000	-0.804207	0.000638317	1.15463	383.664
495.0000	-0.868073	0.000616781	1.15521	383.38
494.5000	-1.37789	0.000610575	1.15495	383.118
494.0000	-1.10751	0.000615583	1.15421	382.85
493.5000	-1.05073	0.000629018	1.15322	382.552
493.0000	-1.19951	0.000634	1.15232	382.279
492.5000	-1.99089	0.000622367	1.15134	381.998
492.0000	-1.5988	0.000620454	1.15008	381.702
491.5000	-1.63443	0.000659972	1.14875	381.448
491.0000	-1.51016	0.000656987	1.14746	381.196
490.5000	-1.79916	0.000622229	1.14599	380.966
490.0000	-2.06577	0.000627426	1.14446	380.787
489.5000	-2.11666	0.000585065	1.1426	380.635
489.0000	-1.95594	0.0005927	1.14014	380.446
488.5000	-2.35537	0.00058511	1.13646	380.135
488.0000	-2.52305	0.000564657	1.13109	379.553
487.5000	-2.37209	0.000544206	1.12509	378.722
487.0000	-2.14578	0.000586082	1.12023	377.808
486.5000	-2.06942	0.000588399	1.11509	376.732
486.0000	-2.16966	0.000574282	1.11061	375.678
485.5000	-2.11861	0.000560662	1.10761	374.67
485.0000	-1.81242	0.000569953	1.1056	373.777
484.5000	-1.97935	0.000555691	1.10304	373.018
484.0000	-2.30482	0.0005717	1.09943	372.288
483.5000	-2.62763	0.000574203	1.09565	371.633
483.0000	-3.15655	0.00056189	1.09096	370.965
482.5000	-3.16204	0.000567296	1.08632	370.399
482.0000	-3.10454	0.000595572	1.08133	369.856
481.5000	-3.30939	0.000581188	1.07634	369.312
481.0000	-3.07336	0.000594775	1.07161	368.805
480.5000	-3.12783	0.00060719	1.06654	368.309
480.0000	-3.12195	0.000602411	1.06086	367.792
479.5000	-3.31923	0.000598559	1.05471	367.232
479.0000	-3.37741	0.000609318	1.04611	366.433
478.5000	-3.70593	0.000584222	1.03697	365.382
478.0000	-3.60977	0.000565049	1.02991	364.187
477.5000	-3.6119	0.000599036	1.02685	363.26
477.0000	-3.5147	0.000611731	1.02355	362.502
476.5000	-3.52074	0.000589767	1.01539	361.495
476.0000	-3.20674	0.000614507	1.00563	360.252
475.5000	-3.06313	0.000607218	0.995634	358.77
475.0000	-2.98237	0.000602422	0.985885	357.098
474.5000	-2.57481	0.000605144	0.977217	355.358
474.0000	-2.55262	0.000597076	0.968867	353.47
473.5000	-2.68167	0.000580652	0.959747	351.32
473.0000	-2.71436	0.000584427	0.950828	349.033
472.5000	-2.91966	0.000578113	0.943857	346.727
472.0000	-2.57352	0.000586957	0.940302	344.87
471.5000	-2.53146	0.000574385	0.937553	343.382
471.0000	-2.53753	0.000577709	0.935047	342.459
470.5000	-2.30273	0.000576321	0.932654	341.862
470.0000	-2.10863	0.000579626	0.929097	341.537
469.5000	-2.28946	0.000585453	0.921345	341.084
469.0000	-2.63875	0.000566027	0.908222	340.111
468.5000	-2.8389	0.000560268	0.895944	338.809
468.0000	-3.12124	0.000556653	0.887086	337.523
467.5000	-3.19377	0.000546131	0.880726	336.465
467.0000	-3.33128	0.000547098	0.875839	335.663
466.5000	-3.4018	0.000557206	0.871396	335.08
466.0000	-3.27006	0.000578619	0.866071	334.682
465.5000	-3.2733	0.000575494	0.860339	334.503
465.0000	-3.23325	0.000575289	0.853938	334.575
464.5000	-3.06163	0.000603091	0.845058	334.704
464.0000	-3.37461	0.000605934	0.832726	334.557
463.5000	-3.58282	0.00059937	0.818518	334.004
463.0000	-3.50991	0.000594768	0.805412	333.186
462.5000	-3.5362	0.000620573	0.794533	332.267
462.0000	-3.84339	0.000622965	0.785198	331.334
461.5000	-3.82077	0.000611395	0.776908	330.534
461.0000	-3.7768	0.000619786	0.768883	329.876
460.5000	-3.45322	0.000624214	0.760341	329.327
460.0000	-3.33098	0.000635444	0.751656	328.852
459.5000	-3.18137	0.00061593	0.742349	328.409
459.0000	-3.27878	0.000630586	0.731401	327.848
458.5000	-3.44457	0.000612997	0.719935	327.192
458.0000	-3.35364	0.000604437	0.707781	326.357
457.5000	-3.56893	0.00059953	0.695362	325.284
457.0000	-3.57275	0.000582076	0.683842	324.066
456.5000	-3.60661	0.000564942	0.6746	322.95
456.0000	-3.44755	0.000562749	0.664408	321.859
455.5000	-3.35991	0.000561059	0.651328	320.509
455.0000	-3.20478	0.000557858	0.639747	319.124
454.5000	-3.3418	0.000540907	0.631379	317.922
454.0000	-3.17104	0.000531174	0.62367	316.964
453.5000	-2.8823	0.000542499	0.613926	316.119
453.0000	-2.74323	0.000534428	0.603575	315.287
452.5000	-2.67176	0.000524239	0.59339	314.428
452.0000	-2.74668	0.000522696	0.583316	313.518
451.5000	-2.86379	0.000514221	0.572883	312.579
451.0000	-2.75807	0.000515446	0.562955	311.682
450.5000	-2.61751	0.000516827	0.552704	310.739
450.0000	-2.75616	0.000510008	0.543726	309.87
449.5000	-2.73736	0.000501946	0.536	309.159
449.0000	-2.54559	0.000511744	0.528843	308.629
448.5000	-2.7417	0.000514051	0.519362	308.028
448.0000	-2.66844	0.000507622	0.509324	307.31
447.5000	-2.42193	0.000490442	0.501781	306.701
447.0000	-2.33706	0.00048282	0.496667	306.39
446.5000	-2.30813	0.000494159	0.489828	306.139
446.0000	-2.24782	0.000498358	0.478812	305.62
445.5000	-2.18691	0.00050074	0.467884	304.836
445.0000	-2.17809	0.000508459	0.458661	303.938
444.5000	-2.22604	0.000504663	0.449898	303.007
444.0000	-1.96183	0.00049749	0.441368	302.072
443.5000	-2.03634	0.000485632	0.433091	301.095
443.0000	-2.19762	0.000492263	0.426297	300.246
442.5000	-2.12944	0.000499501	0.419684	299.423
442.0000	-2.00093	0.000500947	0.413783	298.743
441.5000	-1.83922	0.000500264	0.406912	298.004
441.0000	-1.95012	0.000508583	0.400482	297.326
440.5000	-2.09796	0.000504237	0.394129	296.657
440.0000	-1.94995	0.000487633	0.387432	295.963
439.5000	-1.848	0.00047511	0.380535	295.257
439.0000	-1.98535	0.000479602	0.373063	294.506
438.5000	-1.97208	0.000478687	0.365114	293.732
438.0000	-1.83557	0.000481483	0.357257	292.988
437.5000	-1.69911	0.000459348	0.349933	292.285
437.0000	-1.55766	0.000452398	0.342189	291.563
436.5000	-1.48265	0.000444707	0.336011	290.954
436.0000	-1.54296	0.000437687	0.330505	290.424
435.5000	-1.56241	0.000449291	0.324388	289.903
435.0000	-1.4582	0.000442833	0.317811	289.378
434.5000	-1.29873	0.000440799	0.311129	288.847
434.0000	-1.37404	0.0004228	0.304531	288.29
433.5000	-1.3932	0.000419864	0.298454	287.752
433.0000	-1.29109	0.000419025	0.292358	287.162
432.5000	-1.19763	0.000412498	0.286578	286.595
432.0000	-1.18859	0.000410913	0.280375	285.996
431.5000	-1.2605	0.000413671	0.274302	285.4
431.0000	-1.09313	0.000408544	0.268694	284.832
430.5000	-1.17702	0.000413076	0.263292	284.273
430.0000	-1.16205	0.000389945	0.258271	283.735
429.5000	-1.19927	0.000381459	0.252776	283.159
429.0000	-1.22466	0.000379842	0.247258	282.577
428.5000	-1.13762	0.000382867	0.241826	282.011
428.0000	-1.13259	0.000380694	0.23596	281.432
427.5000	-1.07357	0.000380204	0.231033	280.918
427.0000	-1.09257	0.000381913	0.226221	280.405
426.5000	-1.07031	0.000373155	0.221501	279.891
426.0000	-1.03963	0.000386856	0.216582	279.341
425.5000	-0.931155	0.000373592	0.211813	278.766
425.0000	-0.897062	0.000366445	0.206897	278.169
424.5000	-0.881682	0.00035833	0.202224	277.562
424.0000	-0.734218	0.00034851	0.197927	276.972
423.5000	-0.721606	0.000345973	0.194461	276.46
423.0000	-0.710682	0.000335697	0.190597	275.978
422.5000	-0.56297	0.000326596	0.186633	275.546
422.0000	-0.533373	0.000319261	0.182448	275.123
421.5000	-0.591781	0.000322871	0.178529	274.732
421.0000	-0.351674	0.000319752	0.174919	274.365
420.5000	-0.232881	0.000312355	0.171199	273.993
420.0000	-0.330259	0.000296754	0.167572	273.613
419.5000	-0.343766	0.000291003	0.16386	273.209
419.0000	-0.368851	0.000279895	0.160413	272.839
418.5000	-0.192308	0.000272016	0.157008	272.508
418.0000	-0.484637	0.000269212	0.153972	272.188
417.5000	-0.509799	0.000267969	0.150787	271.874
417.0000	-0.426803	0.000269481	0.147986	271.579
416.5000	-0.301953	0.000261719	0.145549	271.353
416.0000	-0.335176	0.000259172	0.142936	271.174
415.5000	-0.311495	0.000267434	0.139717	270.956
415.0000	-0.301388	0.000261469	0.136582	270.71
414.5000	-0.118823	0.000252386	0.133809	270.423
414.0000	-0.0432048	0.000253542	0.131501	270.135
413.5000	-0.0945041	0.000258397	0.129148	269.826
413.0000	-0.298644	0.000260565	0.127056	269.553
412.5000	-0.384866	0.000252935	0.125218	269.325
412.0000	-0.272406	0.000260647	0.123489	269.117
411.5000	-0.0837105	0.000271101	0.12135	268.896
411.0000	-0.0698621	0.000266956	0.119417	268.697
410.5000	-0.0967911	0.000257389	0.11764	268.504
410.0000	-0.0893652	0.000253407	0.116199	268.341
409.5000	0.123708	0.000258388	0.114799	268.193
409.0000	0.105663	0.00024966	0.113588	268.079
408.5000	0.214881	0.000253322	0.111839	267.946
408.0000	0.196543	0.000247199	0.109997	267.819
407.5000	0.33993	0.000248526	0.107967	267.67
407.0000	0.382768	0.000237971	0.106232	267.52
406.5000	0.502435	0.000235625	0.104633	267.367
406.0000	0.462625	0.000246162	0.103174	267.223
405.5000	0.342686	0.000244208	0.101451	267.061
405.0000	0.470088	0.000235759	0.0998679	266.889
404.5000	0.639258	0.000233416	0.0982819	266.698
404.0000	0.63071	0.000233715	0.0971011	266.487
403.5000	0.375602	0.000236132	0.0958829	266.25
403.0000	0.349201	0.000220263	0.0950836	266.006
402.5000	0.355304	0.00022074	0.0939223	265.746
402.0000	0.244032	0.000219109	0.0931645	265.494
401.5000	0.351017	0.000222242	0.0927011	265.237
401.0000	0.282683	0.000225584	0.0918905	264.99
400.5000	0.181315	0.00023127	0.091172	264.762
400.0000	0.148645	0.000224196	0.0904741	264.567
399.5000	0.108021	0.000218683	0.0903615	264.389
399.0000	0.0204113	0.000216568	0.0903813	264.254
398.5000	-0.0283222	0.000215795	0.0900786	264.125
398.0000	-0.12944	0.000220867	0.0896945	264.014
397.5000	-0.159717	0.000203761	0.0893942	263.935
397.0000	-0.205605	0.000202503	0.089343	263.874
396.5000	-0.2606	0.000204729	0.0891924	263.851
396.0000	-0.382801	0.000210229	0.0891657	263.857
395.5000	-0.340789	0.000194466	0.0886567	263.877
395.0000	-0.326494	0.000195544	0.0884032	263.935
394.5000	-0.286942	0.000198909	0.0884233	264.031
394.0000	-0.309548	0.000209439	0.088406	264.145
393.5000	-0.314229	0.00020993	0.0881083	264.277
393.0000	-0.269419	0.000189425	0.0876544	264.422
392.5000	-0.0583381	0.000195134	0.0873259	264.553
392.0000	0.00860952	0.000186723	0.0873901	264.683
391.5000	-0.0532639	0.000194109	0.087479	264.782
391.0000	-0.0530059	0.000177908	0.0874173	264.869
390.5000	-0.0582136	0.000176881	0.0872183	264.955
390.0000	-0.120471	0.000184474	0.087144	265.042
389.5000	-0.127473	0.000193337	0.0873529	265.116
389.0000	-0.119424	0.000195495	0.0876636	265.177
388.5000	-0.0438713	0.000189038	0.0877413	265.233
388.0000	0.100385	0.000189478	0.0878587	265.3
387.5000	0.0459612	0.000189313	0.0883252	265.365
387.0000	-0.137344	0.000188163	0.0892313	265.426
386.5000	-0.171098	0.000192592	0.0899151	265.476
386.0000	-0.172956	0.000193678	0.0906669	265.518
385.5000	-0.242962	0.000177025	0.0913257	265.546
385.0000	-0.224365	0.000173692	0.0921178	265.58
384.5000	-0.391785	0.000167517	0.0928336	265.606
384.0000	-0.605025	0.000174051	0.0939291	265.653
383.5000	-0.61484	0.000175297	0.0947959	265.703
383.0000	-0.573456	0.000158465	0.0954985	265.751
382.5000	-0.434267	0.000155956	0.0962517	265.796
382.0000	-0.368018	0.000165271	0.0974679	265.844
381.5000	-0.370259	0.000149691	0.0988083	265.892
381.0000	-0.298454	0.000165707	0.0999471	265.95
380.5000	-0.215815	0.000161737	0.10098	266.015
380.0000	-0.250293	0.000161817	0.102202	266.076
379.5000	-0.361346	0.000166054	0.103417	266.133
379.0000	-0.405229	0.000165153	0.104229	266.186
378.5000	-0.28201	0.00017082	0.104837	266.249
378.0000	-0.178186	0.000163796	0.105472	266.31
377.5000	-0.195542	0.00015818	0.106177	266.362
377.0000	0.0551819	0.000177468	0.106835	266.411
376.5000	-0.0191115	0.000179551	0.107627	266.449
376.0000	0.0620594	0.000180039	0.108403	266.479
375.5000	0.183608	0.000174704	0.108772	266.491
375.0000	0.288643	0.000180397	0.109106	266.49
374.5000	0.187409	0.000191742	0.109452	266.484
374.0000	0.174169	0.000194632	0.109824	266.477
373.5000	0.213975	0.000189619	0.110135	266.472
373.0000	0.199227	0.000174744	0.110211	266.467
372.5000	0.16836	0.000165271	0.110413	266.465
372.0000	0.205908	0.000166845	0.110631	266.459
371.5000	0.185759	0.000165139	0.110684	266.447
371.0000	0.161064	0.000160597	0.111075	266.449
370.5000	0.263552	0.000173399	0.111574	266.455
370.0000	0.188878	0.000168676	0.111938	266.464
369.5000	0.12735	0.0001689	0.112159	266.466
369.0000	0.210231	0.000166108	0.112469	266.478
368.5000	0.153552	0.000158344	0.113081	266.511
368.0000	0.198446	0.000153645	0.113593	266.559
367.5000	0.090717	0.000149807	0.114115	266.603
367.0000	0.175231	0.000146078	0.115011	266.664
366.5000	0.174952	0.000156743	0.115649	266.73
366.0000	0.252325	0.000156019	0.116285	266.808
365.5000	0.230221	0.000158129	0.116753	266.872
365.0000	0.332936	0.000169113	0.117081	266.936
364.5000	0.378181	0.000169169	0.117759	267.01
364.0000	0.386281	0.000169647	0.118303	267.09
363.5000	0.446397	0.00017666	0.119185	267.172
363.0000	0.609224	0.000170079	0.120056	267.256
362.5000	0.655981	0.000172586	0.120678	267.332
362.0000	0.816679	0.000174663	0.121179	267.4
361.5000	0.892157	0.000188933	0.121995	267.48
361.0000	0.812928	0.000185738	0.122938	267.572
360.5000	0.733129	0.000196015	0.123483	267.65
360.0000	0.713177	0.000205504	0.124012	267.718
359.5000	0.906111	0.000211674	0.124544	267.793
359.0000	0.827737	0.000207322	0.124725	267.858
358.5000	0.870119	0.000209523	0.124759	267.92
358.0000	0.857462	0.000197037	0.124802	267.979
357.5000	0.706758	0.000203469	0.124977	268.052
357.0000	0.770656	0.000186651	0.12539	268.122
356.5000	0.712399	0.000192691	0.126059	268.188
356.0000	0.756733	0.000193063	0.126348	268.252
355.5000	0.80879	0.000186203	0.126504	268.306
355.0000	0.839805	0.000183979	0.126594	268.365
354.5000	0.809662	0.000191829	0.126699	268.426
354.0000	0.788917	0.000188062	0.126989	268.494
353.5000	0.673454	0.000188754	0.127226	268.557
353.0000	0.630998	0.000182848	0.127409	268.623
352.5000	0.675388	0.00018021	0.127701	268.696
352.0000	0.879118	0.000167878	0.12796	268.765
351.5000	0.89615	0.000161616	0.128196	268.829
351.0000	0.909512	0.000164558	0.128701	268.887
350.5000	1.01671	0.000163101	0.129303	268.944
350.0000	0.919893	0.000161128	0.130084	269.012
349.5000	0.909806	0.000163607	0.13099	269.084
349.0000	0.920395	0.000166792	0.131968	269.155
348.5000	0.837934	0.000178074	0.132963	269.22
348.0000	0.7957	0.0001692	0.133632	269.279
347.5000	0.634793	0.000178371	0.134485	269.33
347.0000	0.616729	0.00017579	0.135455	269.387
346.5000	0.471938	0.000172963	0.136327	269.453
346.0000	0.447494	0.000166163	0.137043	269.513
345.5000	0.625119	0.000155011	0.1379	269.569
345.0000	0.695222	0.000146005	0.138869	269.632
344.5000	0.793775	0.000144499	0.139792	269.69
344.0000	0.727345	0.000132391	0.140825	269.743
343.5000	0.687506	0.000118387	0.141555	269.791
343.0000	0.641982	0.00010861	0.142315	269.852
342.5000	0.677424	0.000113348	0.142969	269.916
342.0000	0.697282	0.000119426	0.143689	269.988
341.5000	0.751589	0.000120106	0.144394	270.051
341.0000	0.81072	0.000120591	0.145162	270.101
340.5000	1.03404	0.000122498	0.145748	270.16
340.0000	1.05509	0.000115341	0.146355	270.223
339.5000	1.22697	0.000114738	0.146661	270.282
339.0000	1.19937	0.000105242	0.147452	270.36
338.5000	1.24238	0.000114681	0.148272	270.434
338.0000	1.1193	0.00011637	0.149051	270.509
337.5000	0.961669	0.000129809	0.149805	270.589
337.0000	0.90594	0.000133352	0.150411	270.666
336.5000	0.98701	0.000132846	0.1513	270.749
336.0000	0.999024	0.000131183	0.152175	270.842
335.5000	1.08416	0.000147438	0.153038	270.933
335.0000	1.0801	0.000143899	0.15393	271.027
334.5000	1.14159	0.000154109	0.154749	271.123
334.0000	1.13623	0.000139521	0.155728	271.222
333.5000	1.22726	0.000149255	0.157013	271.318
333.0000	1.16724	0.000139298	0.15797	271.415
332.5000	1.03641	0.000127534	0.158755	271.522
332.0000	1.14775	0.000144935	0.159497	271.62
331.5000	1.19646	0.000146584	0.1607	271.738
331.0000	1.19724	0.000153088	0.162	271.862
330.5000	1.25756	0.000158478	0.162893	271.97
330.0000	1.21063	0.000150817	0.163962	272.085
329.5000	1.39713	0.000149128	0.16504	272.201
329.0000	1.42683	0.000122896	0.166025	272.32
328.5000	1.51156	0.00013359	0.167079	272.432
328.0000	1.56522	0.000138771	0.167895	272.534
327.5000	1.50024	0.000129488	0.168801	272.626
327.0000	1.5216	0.000119576	0.169928	272.714
326.5000	1.48094	0.000120988	0.171443	272.834
326.0000	1.33626	0.0001087	0.173029	272.957
325.5000	1.47272	0.000112062	0.174512	273.092
325.0000	1.37912	9.99973E-005	0.17572	273.232
324.5000	1.52911	0.000112946	0.177262	273.388
324.0000	1.51117	0.000104879	0.178896	273.536
323.5000	1.31442	9.7121E-005	0.180593	273.68
323.0000	1.11086	9.31846E-005	0.1821	273.83
322.5000	1.00878	8.72959E-005	0.183684	273.992
322.0000	0.938852	8.59941E-005	0.185164	274.156
321.5000	0.959226	8.04403E-005	0.186789	274.312
321.0000	0.905841	8.22935E-005	0.188634	274.485
320.5000	0.984591	9.17182E-005	0.190443	274.648
320.0000	0.895896	8.93189E-005	0.192036	274.807
319.5000	0.803889	8.60319E-005	0.193711	274.972
319.0000	0.820604	9.82627E-005	0.195285	275.153
318.5000	0.760609	0.000104375	0.196961	275.352
318.0000	0.862563	9.45156E-005	0.198326	275.518
317.5000	0.973603	0.000100246	0.199666	275.663
317.0000	0.820735	9.60702E-005	0.201365	275.814
316.5000	0.745218	9.8813E-005	0.20314	275.957
316.0000	0.641054	8.48067E-005	0.205042	276.116
315.5000	0.779372	9.1884E-005	0.206637	276.279
315.0000	0.788498	9.22399E-005	0.208467	276.475
314.5000	0.846082	9.14846E-005	0.210047	276.648
314.0000	0.978979	0.000105007	0.211987	276.845
313.5000	1.18652	0.00010466	0.213852	277.031
313.0000	1.29691	0.000109534	0.215839	277.238
312.5000	1.23569	9.03671E-005	0.217647	277.441
312.0000	1.16199	8.18965E-005	0.219777	277.654
311.5000	1.2168	9.04283E-005	0.221935	277.882
311.0000	1.24949	9.1993E-005	0.224591	278.133
310.5000	1.26242	7.97153E-005	0.226922	278.394
310.0000	1.2037	9.17605E-005	0.229348	278.643
309.5000	1.20107	8.37235E-005	0.232097	278.919
309.0000	1.18332	7.80465E-005	0.235102	279.225
308.5000	1.18037	7.82329E-005	0.237978	279.548
308.0000	1.20948	8.53942E-005	0.240842	279.865
307.5000	1.10907	7.94166E-005	0.244381	280.238
307.0000	1.18735	8.05741E-005	0.248018	280.6
306.5000	1.27003	8.01768E-005	0.252055	281
306.0000	1.37306	7.03617E-005	0.256187	281.395
305.5000	1.14269	6.14893E-005	0.26052	281.837
305.0000	1.11835	5.29713E-005	0.265117	282.292
304.5000	0.950803	6.41356E-005	0.270573	282.813
304.0000	1.09461	6.7331E-005	0.276523	283.372
303.5000	1.15187	8.49207E-005	0.282471	283.932
303.0000	0.928725	7.11127E-005	0.288898	284.56
302.5000	0.81623	7.78797E-005	0.295476	285.208
302.0000	0.88242	9.47884E-005	0.302785	285.906
301.5000	0.920553	9.75253E-005	0.310473	286.637
301.0000	0.915542	0.000101535	0.318216	287.395
300.5000	1.04733	0.00011409	0.325279	288.09
300.0000	0.980332	9.4521E-005	0.334119	288.928
299.5000	1.12053	9.49594E-005	0.342681	289.753
299.0000	1.06676	0.000104022	0.351027	290.572
298.5000	1.06786	0.000103098	0.35958	291.425
298.0000	1.01127	9.42978E-005	0.367726	292.23
297.5000	1.12115	9.37322E-005	0.376297	293.072
297.0000	1.21943	9.54099E-005	0.384326	293.82
296.5000	1.10678	9.76389E-005	0.39189	294.544
296.0000	1.19562	9.37454E-005	0.399313	295.261
295.5000	1.20598	8.88358E-005	0.406603	295.939
295.0000	1.44646	8.61043E-005	0.413333	296.549
294.5000	1.68375	8.86206E-005	0.419995	297.166
294.0000	1.62306	7.61531E-005	0.426488	297.809
293.5000	1.54005	5.27861E-005	0.431618	298.336
293.0000	1.55509	5.80907E-005	0.43703	298.885
292.5000	1.59929	6.21674E-005	0.44215	299.427
292.0000	1.64333	8.60023E-005	0.446479	299.905
291.5000	1.59007	9.1567E-005	0.450642	300.356
291.0000	1.46665	8.1109E-005	0.45463	300.787
290.5000	1.24295	6.80943E-005	0.458805	301.232
290.0000	1.31847	7.73472E-005	0.462825	301.642
289.5000	1.08108	7.34242E-005	0.46632	302.03
289.0000	0.849254	7.57554E-005	0.469555	302.4
288.5000	0.923991	7.36012E-005	0.472985	302.802
288.0000	0.835501	9.0748E-005	0.476291	303.195
287.5000	0.989567	0.000102753	0.479732	303.613
287.0000	0.881058	0.00011626	0.483199	304.075
286.5000	0.676261	0.000115202	0.486305	304.522
286.0000	0.557642	0.000125977	0.489396	304.931
285.5000	0.609159	0.000146567	0.492766	305.318
285.0000	0.339904	0.000144695	0.496457	305.742
284.5000	0.242405	0.000148281	0.499774	306.13
284.0000	0.0955208	0.000141343	0.5035	306.559
283.5000	-0.0923437	0.000116995	0.507586	307.01
283.0000	-0.196229	0.000113698	0.51139	307.438
282.5000	0.0829856	0.00013873	0.5157	307.915
282.0000	0.3738	0.000157569	0.520005	308.424
281.5000	0.246041	0.00016459	0.524103	308.915
281.0000	0.358845	0.000178568	0.528713	309.438
280.5000	0.321345	0.000179274	0.53347	310.001
280.0000	0.328807	0.000203718	0.538643	310.602
279.5000	0.130338	0.00021197	0.544005	311.234
279.0000	0.0187371	0.000206223	0.549352	311.872
278.5000	0.145801	0.000213227	0.555343	312.572
278.0000	0.010069	0.000203831	0.56248	313.348
277.5000	-0.159454	0.000194841	0.569424	314.104
277.0000	-0.207289	0.000193573	0.577021	314.957
276.5000	-0.193727	0.000219253	0.585024	315.867
276.0000	-0.0124972	0.000215073	0.592754	316.737
275.5000	-0.118846	0.000228867	0.602048	317.75
275.0000	-0.0197795	0.000244109	0.611876	318.826
274.5000	0.162383	0.000252926	0.622185	319.976
274.0000	0.131092	0.000255556	0.633476	321.263
273.5000	-0.149982	0.000226942	0.644608	322.497
273.0000	-0.0231049	0.000255231	0.657038	323.869
272.5000	-0.353694	0.00025493	0.670121	325.324
272.0000	-0.261121	0.000263958	0.683995	326.884
271.5000	-0.152913	0.000253524	0.699489	328.627
271.0000	0.0758406	0.00026516	0.715456	330.392
270.5000	-0.0721632	0.000267029	0.732557	332.268
270.0000	-0.0755239	0.00025651	0.750088	334.234
269.5000	-0.305584	0.000292644	0.768726	336.362
269.0000	-0.0342027	0.000321016	0.787321	338.48
268.5000	-0.0697792	0.000315307	0.808046	340.836
268.0000	-0.457062	0.000305937	0.830134	343.343
267.5000	-0.398242	0.000310335	0.85328	345.99
267.0000	-0.525662	0.000325907	0.878485	348.922
266.5000	-0.590271	0.00034585	0.904727	352.013
266.0000	-0.420882	0.000357862	0.929582	354.908
265.5000	-0.821438	0.000371617	0.956759	358.063
265.0000	-0.692474	0.000374415	0.985738	361.495
264.5000	-0.924968	0.000337279	1.0135	364.836
264.0000	-0.787322	0.000361827	1.04146	368.229
263.5000	-1.02972	0.000371236	1.07105	371.818
263.0000	-0.850703	0.000382954	1.09767	375.079
262.5000	-0.984036	0.000357312	1.12643	378.677
262.0000	-1.59711	0.000338525	1.15321	382.103
261.5000	-1.69498	0.000331425	1.17999	385.526
261.0000	-1.348	0.00030203	1.20559	388.773
260.5000	-1.7367	0.000298295	1.23189	392.16
260.0000	-1.53148	0.000292791	1.25775	395.539
259.5000	-1.41318	0.00030503	1.28317	398.907
259.0000	-1.31914	0.000295995	1.30808	402.268
258.5000	-0.973765	0.000319122	1.33306	405.624
258.0000	-1.20571	0.000314526	1.35791	408.988
257.5000	-1.48116	0.000265737	1.38142	412.192
257.0000	-1.34803	0.00027221	1.4061	415.587
256.5000	-1.437	0.000277249	1.42966	418.841
256.0000	-1.53151	0.000270481	1.45496	422.332
255.5000	-1.48282	0.000274634	1.48051	425.864
255.0000	-1.87757	0.000222448	1.5062	429.453
254.5000	-1.50134	0.000286568	1.53058	432.884
254.0000	-1.65133	0.000279857	1.55514	436.355
253.5000	-0.883693	0.000362378	1.58278	440.219
253.0000	-0.749765	0.000353963	1.60741	443.719
252.5000	-1.65535	0.000357928	1.64294	448.868
252.0000	-2.71771	0.000301527	1.67156	453.039
251.5000	-3.05659	0.000255405	1.69592	456.598
251.0000	-4.30919	0.000159582	1.71987	460.077
250.5000	-4.74808	0.000146105	1.74299	463.488
250.0000	-5.09503	8.09707E-005	1.76394	466.628
249.5000	-4.68924	0.000116488	1.78384	469.644
249.0000	-4.9048	0.000121206	1.804	472.717
248.5000	-4.98348	0.000152761	1.82254	475.534
248.0000	-5.05192	0.000148991	1.84117	478.398
247.5000	-5.72194	0.000185261	1.85814	481.05
247.0000	-5.88906	0.000178447	1.87542	483.785
246.5000	-6.31397	0.000150896	1.89254	486.483
246.0000	-7.17143	9.22161E-005	1.9096	489.159
245.5000	-7.82653	0.000147156	1.92682	491.944
245.0000	-9.22688	0.000118758	1.94412	494.753
244.5000	-8.65019	8.09348E-005	1.96165	497.598
244.0000	-7.9786	3.73921E-005	1.97947	500.53
243.5000	-6.83925	8.56899E-005	1.99711	503.461
243.0000	-6.17862	0.000152015	2.01526	506.525
242.5000	-6.7385	0.000204538	2.03637	510.112
242.0000	-6.90837	0.000192643	2.05581	513.426
241.5000	-7.31486	0.000178649	2.07875	517.349
241.0000	-8.8184	0.000133263	2.10112	521.185
240.5000	-9.91112	0.000125859	2.12728	525.76
240.0000	-9.33473	8.52917E-005	2.15294	530.257
239.5000	-10.2394	6.12347E-005	2.18522	535.933
239.0000	-10.4896	0.000111902	2.21548	541.251
238.5000	-10.807	8.95417E-005	2.24971	547.311
238.0000	-8.82287	0.000128548	2.28814	554.218
237.5000	-9.56328	-7.39802E-005	2.32532	560.975
237.0000	-8.69806	-0.000194361	2.36725	568.651
236.5000	-9.47146	-0.000227885	2.41177	576.878
236.0000	-10.1246	-0.000224276	2.4566	585.229
235.5000	-10.8036	-0.000397241	2.51118	595.559
235.0000	-10.6588	-0.00068789	2.5501	603.012
234.5000	-12.2284	-0.000635854	2.59316	611.324
234.0000	-11.423	-0.000663726	2.64032	620.515
233.5000	-11.6495	-0.000658988	2.69518	631.301
233.0000	-12.6737	-0.000671669	2.75487	643.208
232.5000	-12.169	-0.000464895	2.81326	655.084
232.0000	-11.0678	-0.000313715	2.88267	669.476
231.5000	-8.08374	-0.00025998	2.94028	681.675
231.0000	-10.1026	-0.000264885	3.00499	695.623
230.5000	-7.38835	-0.000486245	3.06924	709.82
230.0000	-8.60237	-0.000479363	3.12948	723.48
229.5000	-9.0428	-0.000230227	3.19177	737.887
229.0000	-9.44396	-0.000271049	3.25219	752.212
228.5000	-8.90285	-0.000309549	3.31044	766.313
228.0000	-9.81909	-4.38976E-005	3.36301	779.362
227.5000	-11.6815	-7.81761E-005	3.41467	792.64
227.0000	-14.2689	9.30344E-006	3.46279	805.371
226.5000	-10.4234	0.000357903	3.50925	818.046
226.0000	-10.7276	0.000464179	3.5475	828.887
225.5000	-8.75012	0.000476836	3.58366	839.567
225.0000	-2.28089	0.000682295	3.61496	849.394
224.5000	-5.16325	0.000694114	3.64157	858.311
224.0000	-4.89643	0.000542748	3.66375	866.269
223.5000	-4.1676	0.000271336	3.68167	873.229
223.0000	-7.49447	0.000312591	3.69559	879.257
222.5000	-3.03066	0.000342328	3.70667	885.316
222.0000	-6.4859	0.000480347	3.71238	889.858
221.5000	-6.21335	0.000609351	3.71405	893.627
221.0000	-8.76181	0.000555283	3.71263	896.184
220.5000	-5.82184	0.000567024	3.70888	898.218
220.0000	-4.1666	0.000463729	3.70282	899.871

##### Extended Information
[Comments]
Sample name	JS187+JS190_5E-5_H2O_52-48
Comment
User
Division
Company	Labo systeme complexes hors equilibre

[Detailed Information]
Creation date	1/23/2024 11:42 AM

Data array type	Linear data array * 4
Horizontal axis	Wavelength [nm]
Vertical axis(1)	CD [mdeg]
Vertical axis(2)	LD [dOD]
Vertical axis(3)	Abs
Vertical axis(4)	HT [V]
Start	700 nm
End	220 nm
Data interval	0.5 nm
Data points	961     

[Measurement Information]
Instrument name	CD Jasco
Model name	J-1500
Serial No.	A005261638

Detector	PM-539
Detector S/N	A0052PM539
  Lock-in amp.	X mode
  HT volt	Auto

Detector	EXPML-535
Detector S/N	A0001
  Lock-in amp.	X mode
  HT volt	Auto

Measurement date	1/23/2024 11:41 AM

Overload detect	1
Photometric mode	CD, LD, Abs, HT
Measure range	700 - 220 nm
Data pitch	0.5 nm
CD scale	200 mdeg/1.0 dOD
FL scale	200 mdeg/1.0 dOD
D.I.T.	1 sec
Bandwidth	1.00 nm
Start mode	Immediately
Scanning speed	500 nm/min
Baseline correction	Baseline
Shutter control	Auto


