TITLE	JS187+JS190_5E-5_H2O_56-44
DATA TYPE	
ORIGIN	JASCO
OWNER	
DATE	24/01/23
TIME	10:48:21
SPECTROMETER/DATA SYSTEM	
LOCALE	1033
RESOLUTION	
DELTAX	-0.5
XUNITS	NANOMETERS
YUNITS	CD [mdeg]
Y2UNITS	LD [dOD]
Y3UNITS	ABSORBANCE
Y4UNITS	HT [V]
FIRSTX	  700.0000
LASTX	  220.0000
NPOINTS	     961
FIRSTY	     1.59198
MAXY	     3.48437
MINY	   -14.88296
XYDATA
700.0000	1.59198	-6.3292E-005	-0.0584332	298.797
699.5000	1.19125	-8.25505E-005	-0.0593559	298.509
699.0000	1.29756	-7.2802E-005	-0.0605705	298.148
698.5000	1.32649	-3.95305E-005	-0.0612294	297.756
698.0000	1.11671	-4.69447E-005	-0.0624817	297.31
697.5000	0.834448	-3.86729E-005	-0.0641628	296.848
697.0000	0.554453	-1.81686E-005	-0.0661509	296.34
696.5000	0.453619	-1.9721E-005	-0.067356	295.824
696.0000	0.465314	-3.40001E-005	-0.0676978	295.273
695.5000	0.608528	-4.44696E-005	-0.0677178	294.754
695.0000	0.599315	-4.7755E-005	-0.0671686	294.289
694.5000	0.372189	-5.64843E-005	-0.0665009	293.855
694.0000	0.561091	-5.71463E-005	-0.0646296	293.458
693.5000	0.48717	-5.86232E-005	-0.0623396	293.104
693.0000	0.303932	-7.92039E-005	-0.0594539	292.804
692.5000	0.249418	-9.11778E-005	-0.0565918	292.526
692.0000	0.192494	-7.06884E-005	-0.0539427	292.266
691.5000	0.355496	-8.47961E-005	-0.0510109	292.043
691.0000	0.456134	-9.60892E-005	-0.0482389	291.823
690.5000	0.430762	-8.05689E-005	-0.0462163	291.637
690.0000	0.479128	-8.08083E-005	-0.0444213	291.477
689.5000	0.524559	-8.71325E-005	-0.0423902	291.361
689.0000	0.559528	-9.64076E-005	-0.0392873	291.328
688.5000	0.713803	-9.11472E-005	-0.0360733	291.384
688.0000	0.634104	-7.88769E-005	-0.0320214	291.544
687.5000	0.512363	-6.34975E-005	-0.0276978	291.777
687.0000	0.433082	-5.3934E-005	-0.0240493	292.025
686.5000	0.162052	-8.49744E-005	-0.0212207	292.286
686.0000	0.0095234	-9.54624E-005	-0.0200989	292.52
685.5000	0.099091	-7.8668E-005	-0.0199794	292.763
685.0000	-0.00260533	-9.05965E-005	-0.0204915	292.981
684.5000	0.028011	-9.36785E-005	-0.0214751	293.2
684.0000	0.135493	-0.0001017	-0.022891	293.414
683.5000	0.0658801	-0.000110348	-0.0237296	293.645
683.0000	-0.0808296	-0.000100063	-0.0245435	293.891
682.5000	-0.242254	-0.000115096	-0.0246429	294.159
682.0000	0.0774571	-0.000121499	-0.0249218	294.448
681.5000	0.116151	-0.000132163	-0.0247823	294.729
681.0000	0.226288	-0.000139231	-0.0249216	294.996
680.5000	0.523042	-0.000129046	-0.0254128	295.208
680.0000	0.511737	-0.000148054	-0.0274344	295.344
679.5000	0.335548	-0.000162882	-0.0301115	295.413
679.0000	0.251639	-0.000157381	-0.033847	295.428
678.5000	0.481154	-0.000141017	-0.036435	295.417
678.0000	0.784057	-0.000121011	-0.0387139	295.397
677.5000	0.934822	-0.000113358	-0.0400074	295.378
677.0000	0.831562	-9.74945E-005	-0.0405234	295.36
676.5000	1.08645	-9.35496E-005	-0.0402354	295.348
676.0000	1.08618	-0.000100637	-0.0399092	295.336
675.5000	0.872153	-0.000114551	-0.0395176	295.33
675.0000	0.904809	-0.00012979	-0.0389855	295.323
674.5000	0.968265	-0.000124477	-0.0379725	295.331
674.0000	0.859984	-9.31145E-005	-0.0368611	295.35
673.5000	0.970562	-9.97501E-005	-0.0357796	295.366
673.0000	0.681374	-8.09446E-005	-0.0354525	295.406
672.5000	0.425647	-0.000106135	-0.0351906	295.449
672.0000	0.463265	-7.79522E-005	-0.034542	295.506
671.5000	0.66725	-6.26774E-005	-0.0335194	295.556
671.0000	0.605079	-8.39019E-005	-0.0323699	295.62
670.5000	0.797329	-8.84691E-005	-0.031073	295.681
670.0000	0.606974	-6.20353E-005	-0.0299433	295.749
669.5000	0.655982	-6.95021E-005	-0.02931	295.823
669.0000	0.737838	-8.23582E-005	-0.0286419	295.899
668.5000	0.633407	-9.19742E-005	-0.0279268	295.983
668.0000	0.518344	-0.000111739	-0.0273702	296.084
667.5000	0.772516	-0.000104536	-0.026996	296.184
667.0000	0.744029	-9.22319E-005	-0.0267167	296.302
666.5000	0.653302	-9.42852E-005	-0.0264956	296.414
666.0000	0.497561	-8.48676E-005	-0.0269451	296.538
665.5000	0.241463	-0.000109607	-0.0268731	296.671
665.0000	0.407742	-0.000107121	-0.026204	296.786
664.5000	0.756018	-0.000107559	-0.0251612	296.906
664.0000	0.717955	-0.000107069	-0.0249652	297.012
663.5000	0.463803	-0.000110823	-0.0258158	297.111
663.0000	0.876302	-9.58461E-005	-0.0259524	297.198
662.5000	0.816093	-6.34426E-005	-0.0262335	297.276
662.0000	0.67297	-9.07714E-005	-0.0265445	297.347
661.5000	0.538439	-8.8126E-005	-0.0263713	297.401
661.0000	0.325582	-8.53256E-005	-0.0266035	297.443
660.5000	0.422097	-8.24989E-005	-0.0269509	297.483
660.0000	0.530785	-7.47246E-005	-0.0271355	297.503
659.5000	0.322818	-5.3264E-005	-0.0278171	297.509
659.0000	0.429179	-5.12146E-005	-0.0283254	297.494
658.5000	0.327484	-5.6045E-005	-0.0287964	297.451
658.0000	0.255177	-5.56506E-005	-0.0288075	297.399
657.5000	0.562292	-3.45775E-005	-0.0294683	297.32
657.0000	0.378903	-3.72696E-005	-0.029128	297.234
656.5000	0.285117	-2.90352E-005	-0.030222	297.096
656.0000	0.40799	-2.71627E-005	-0.0311607	296.948
655.5000	0.838205	-2.8941E-005	-0.0305631	296.795
655.0000	0.638768	-3.67798E-005	-0.0304358	296.649
654.5000	0.606443	-5.43816E-005	-0.0308503	296.501
654.0000	0.766318	-5.20918E-005	-0.030333	296.364
653.5000	0.87046	-5.1594E-005	-0.0290726	296.238
653.0000	1.13536	-3.76699E-005	-0.0274057	296.131
652.5000	1.20948	-1.54127E-005	-0.0255975	296.064
652.0000	1.3579	-2.01193E-005	-0.023824	296.002
651.5000	1.21063	-1.81754E-005	-0.0213795	295.986
651.0000	1.10834	-3.9579E-005	-0.018373	296.006
650.5000	1.14318	-3.35193E-005	-0.0162015	296.043
650.0000	1.52967	-3.41466E-005	-0.013587	296.107
649.5000	1.39828	-4.33101E-005	-0.0114303	296.203
649.0000	1.27151	-3.80033E-005	-0.00899704	296.323
648.5000	1.70137	-4.51831E-005	-0.00748866	296.467
648.0000	1.93014	-3.81363E-005	-0.00544314	296.65
647.5000	1.8128	-4.14115E-005	-0.00376941	296.825
647.0000	1.63684	-3.76651E-005	-0.00268561	297.017
646.5000	1.85137	-4.02121E-005	-0.00181304	297.209
646.0000	1.97617	-3.60211E-005	-0.000110909	297.398
645.5000	1.94337	-2.80017E-005	0.000627041	297.568
645.0000	1.83923	-4.50231E-005	7.48253E-005	297.712
644.5000	1.65776	-2.92054E-005	-0.000126862	297.843
644.0000	1.75609	-2.9891E-005	-0.000397206	297.929
643.5000	1.63418	-3.46456E-005	-0.000972799	297.999
643.0000	2.029	-3.6401E-005	-0.00165499	298.031
642.5000	2.15161	-1.47679E-005	-0.00217361	298.05
642.0000	2.29903	-7.47784E-006	-0.00247669	298.052
641.5000	2.41465	6.67829E-007	-0.00288927	298.037
641.0000	2.57366	4.35402E-006	-0.00310201	297.994
640.5000	2.37073	1.58353E-005	-0.00276786	297.951
640.0000	2.14995	2.43845E-005	-0.002245	297.894
639.5000	2.12588	2.17903E-005	-0.0013099	297.833
639.0000	1.97459	3.90243E-005	-0.00065473	297.762
638.5000	1.81634	2.13907E-005	0.000521387	297.687
638.0000	1.86085	2.55405E-005	0.000950375	297.595
637.5000	2.06575	3.57175E-005	0.00124494	297.508
637.0000	2.09105	4.89887E-005	0.0025079	297.428
636.5000	2.11146	1.81008E-005	0.00343158	297.344
636.0000	1.98399	-6.46337E-007	0.00388438	297.283
635.5000	2.03103	4.29056E-007	0.00448917	297.228
635.0000	1.81432	1.35351E-005	0.00565303	297.19
634.5000	1.58366	-2.26146E-006	0.00658334	297.143
634.0000	1.25376	-1.84831E-005	0.00737441	297.095
633.5000	1.23677	-1.35795E-005	0.00771835	297.044
633.0000	1.2793	-2.65463E-005	0.008714	297.007
632.5000	1.17444	-4.73735E-005	0.0088824	296.953
632.0000	1.44635	-3.45357E-005	0.00912803	296.906
631.5000	1.38662	-4.28038E-005	0.00976598	296.87
631.0000	1.69859	-3.815E-005	0.0103428	296.832
630.5000	1.61779	-4.87939E-005	0.0107126	296.776
630.0000	1.53227	-1.92835E-005	0.0111269	296.717
629.5000	1.29308	-2.52031E-005	0.0118148	296.67
629.0000	1.37305	-2.10157E-005	0.0122295	296.62
628.5000	1.26067	-3.22047E-005	0.0123891	296.566
628.0000	1.18907	-6.18281E-006	0.0128597	296.514
627.5000	1.26256	2.04343E-005	0.0136145	296.457
627.0000	1.13891	2.76474E-005	0.0137404	296.389
626.5000	1.2829	2.9405E-005	0.0135927	296.325
626.0000	1.39216	3.21785E-005	0.0136411	296.27
625.5000	1.50592	2.9331E-005	0.0143589	296.221
625.0000	1.47062	2.22478E-005	0.0152884	296.185
624.5000	1.47798	3.33521E-005	0.0162558	296.155
624.0000	1.31692	4.361E-005	0.0171068	296.134
623.5000	1.10075	4.67169E-005	0.0180104	296.123
623.0000	0.749399	3.39158E-005	0.0188818	296.124
622.5000	0.758469	5.04654E-005	0.0200316	296.149
622.0000	0.533537	4.67977E-005	0.0208948	296.183
621.5000	0.632099	5.03346E-005	0.0218388	296.231
621.0000	0.751501	5.13598E-005	0.0227816	296.284
620.5000	0.611243	4.61521E-005	0.0234431	296.346
620.0000	0.593594	5.70173E-005	0.0240663	296.427
619.5000	0.718849	4.59813E-005	0.0250139	296.529
619.0000	0.571596	1.66419E-005	0.0262997	296.637
618.5000	0.675868	5.31908E-006	0.0280484	296.763
618.0000	0.589983	1.15538E-005	0.0299359	296.905
617.5000	0.726924	2.7802E-005	0.0306664	297.04
617.0000	0.41076	4.26748E-005	0.0311697	297.185
616.5000	0.5673	5.47977E-005	0.0315796	297.317
616.0000	0.762194	4.96695E-005	0.0324451	297.449
615.5000	0.828265	3.5757E-005	0.0330399	297.593
615.0000	1.0398	2.60058E-005	0.0334899	297.732
614.5000	1.2507	2.45087E-005	0.0336901	297.864
614.0000	1.1894	8.54313E-006	0.0338633	297.991
613.5000	1.37895	2.60316E-006	0.0342866	298.119
613.0000	1.40363	1.33265E-005	0.0346728	298.259
612.5000	1.26195	1.47293E-005	0.0352445	298.408
612.0000	1.41776	1.1451E-006	0.0357122	298.536
611.5000	1.53108	1.45404E-005	0.036465	298.66
611.0000	1.59212	1.06318E-005	0.0366994	298.785
610.5000	1.57763	1.23669E-006	0.0368979	298.914
610.0000	1.58967	-8.02425E-006	0.0367639	299.017
609.5000	1.44552	-1.97936E-005	0.0373863	299.132
609.0000	1.55199	-2.2475E-005	0.0379956	299.243
608.5000	1.55266	-2.86965E-005	0.0388965	299.345
608.0000	1.30839	-2.00195E-005	0.0395322	299.453
607.5000	1.26375	-3.72343E-005	0.0395991	299.546
607.0000	1.42964	-2.8161E-005	0.0400474	299.64
606.5000	1.26987	-1.2543E-005	0.0406025	299.731
606.0000	1.26909	9.10504E-006	0.0419104	299.828
605.5000	1.2338	2.22542E-005	0.0429754	299.93
605.0000	1.01568	1.72639E-005	0.0442096	300.015
604.5000	1.07052	1.86273E-005	0.0450422	300.083
604.0000	0.859239	1.69481E-005	0.0462173	300.157
603.5000	0.756421	2.179E-005	0.0476306	300.236
603.0000	0.813099	2.1306E-005	0.0485982	300.313
602.5000	0.796426	3.52092E-005	0.0499278	300.378
602.0000	1.08923	4.94885E-005	0.0514887	300.449
601.5000	1.07576	5.10571E-005	0.0528984	300.517
601.0000	1.1282	4.87411E-005	0.0543928	300.593
600.5000	1.09165	6.45777E-005	0.0562331	300.65
600.0000	0.933072	6.28279E-005	0.0576798	300.693
599.5000	0.861608	7.0006E-005	0.0602066	300.754
599.0000	1.02706	8.15722E-005	0.0621415	300.793
598.5000	0.983942	8.58757E-005	0.0646244	300.826
598.0000	1.04796	7.97901E-005	0.0667288	300.863
597.5000	1.10124	7.52173E-005	0.0687158	300.906
597.0000	1.12706	5.81343E-005	0.0709102	300.94
596.5000	1.35599	6.29616E-005	0.0733579	300.974
596.0000	1.75325	8.58644E-005	0.0759648	301.018
595.5000	1.79462	8.2593E-005	0.0783841	301.059
595.0000	1.58781	7.11532E-005	0.0808715	301.068
594.5000	1.78619	7.99835E-005	0.0836623	301.106
594.0000	1.67774	9.21616E-005	0.0859309	301.147
593.5000	1.60055	8.93862E-005	0.088796	301.189
593.0000	1.56322	9.60423E-005	0.0922104	301.252
592.5000	1.63837	0.000113793	0.0951797	301.338
592.0000	1.70918	0.000119526	0.0981202	301.443
591.5000	1.5096	0.000127665	0.100559	301.53
591.0000	1.43517	0.000151435	0.103665	301.635
590.5000	1.48337	0.000131556	0.106708	301.775
590.0000	1.45832	0.000148035	0.110038	301.933
589.5000	1.47242	0.00014977	0.113685	302.107
589.0000	1.3836	0.0001579	0.117343	302.286
588.5000	1.43025	0.000164461	0.121206	302.51
588.0000	1.09571	0.000150387	0.125438	302.754
587.5000	1.00867	0.000146986	0.129733	303.02
587.0000	1.11272	0.000149231	0.134186	303.338
586.5000	0.907277	0.000142717	0.138507	303.651
586.0000	0.660066	0.000148904	0.143512	303.981
585.5000	0.773748	0.000156072	0.14817	304.329
585.0000	1.03741	0.000160776	0.15291	304.702
584.5000	1.11847	0.000166236	0.157582	305.069
584.0000	1.03319	0.000168359	0.16304	305.488
583.5000	0.897034	0.000160566	0.168846	305.937
583.0000	0.87658	0.000141485	0.175547	306.452
582.5000	1.06014	0.000150636	0.182081	306.992
582.0000	1.00793	0.000166578	0.188623	307.528
581.5000	0.88454	0.000191891	0.195653	308.117
581.0000	0.740398	0.000191334	0.203248	308.737
580.5000	0.720186	0.000201413	0.211035	309.382
580.0000	0.598914	0.000214792	0.218753	310.04
579.5000	0.673807	0.000243209	0.226599	310.727
579.0000	0.709268	0.000248588	0.234776	311.435
578.5000	0.874228	0.000283925	0.243751	312.182
578.0000	1.13777	0.000316794	0.252985	312.985
577.5000	1.12348	0.000316655	0.26228	313.854
577.0000	1.0269	0.000342691	0.272513	314.73
576.5000	0.895238	0.000347157	0.283724	315.697
576.0000	1.29568	0.000358698	0.294746	316.655
575.5000	1.17947	0.000349979	0.306598	317.682
575.0000	1.23442	0.000388889	0.317372	318.662
574.5000	1.02491	0.000413365	0.3295	319.748
574.0000	0.866868	0.000392289	0.341913	320.835
573.5000	0.855484	0.000412518	0.354491	321.954
573.0000	1.22565	0.000427246	0.3676	323.176
572.5000	1.40388	0.000406362	0.380185	324.358
572.0000	1.42034	0.000413721	0.394451	325.719
571.5000	1.64643	0.000428214	0.408771	327.066
571.0000	1.68013	0.000436937	0.424553	328.507
570.5000	1.51239	0.000454732	0.440302	330.004
570.0000	1.67678	0.000458485	0.455503	331.463
569.5000	1.65676	0.000469748	0.472153	333.011
569.0000	1.45517	0.000470856	0.489108	334.591
568.5000	1.26192	0.000490849	0.504746	336.11
568.0000	1.01026	0.000470212	0.52077	337.703
567.5000	0.948476	0.000498256	0.537021	339.318
567.0000	1.2356	0.000501071	0.553086	340.88
566.5000	1.31407	0.000462029	0.568904	342.403
566.0000	1.60016	0.000484457	0.584511	343.909
565.5000	1.80833	0.000509797	0.599609	345.403
565.0000	1.84469	0.000509544	0.61474	346.87
564.5000	1.51605	0.000528639	0.629633	348.31
564.0000	1.68021	0.000526463	0.6436	349.627
563.5000	1.77697	0.000539285	0.656675	350.888
563.0000	1.63149	0.000551465	0.66972	352.18
562.5000	1.55033	0.00058711	0.681785	353.348
562.0000	1.38226	0.000573094	0.693319	354.458
561.5000	0.987344	0.000558036	0.705839	355.623
561.0000	0.868319	0.000573349	0.717163	356.706
560.5000	1.17516	0.000591175	0.727467	357.693
560.0000	1.02457	0.000606312	0.737531	358.626
559.5000	1.36799	0.000611095	0.746833	359.431
559.0000	1.23847	0.000639957	0.754674	360.105
558.5000	0.731374	0.000641985	0.761228	360.678
558.0000	1.00895	0.000656717	0.76669	361.145
557.5000	0.888524	0.000647752	0.771826	361.54
557.0000	0.655894	0.000644894	0.776294	361.847
556.5000	0.539698	0.000652031	0.779477	362.066
556.0000	0.514602	0.00062783	0.781352	362.197
555.5000	0.655467	0.000627168	0.782819	362.247
555.0000	0.559128	0.000620579	0.78368	362.209
554.5000	0.639915	0.000593507	0.784133	362.083
554.0000	1.08183	0.000572597	0.783302	361.879
553.5000	1.022	0.000600767	0.781935	361.615
553.0000	1.20105	0.000583921	0.78002	361.301
552.5000	1.29242	0.000580651	0.778158	360.939
552.0000	1.42835	0.000563847	0.775664	360.502
551.5000	1.07561	0.000535886	0.772971	360.057
551.0000	1.05872	0.000500368	0.769539	359.577
550.5000	1.04507	0.00049577	0.765965	359.064
550.0000	0.972896	0.00051099	0.762348	358.518
549.5000	0.541024	0.000510962	0.758975	357.978
549.0000	0.77066	0.000548382	0.754869	357.425
548.5000	0.813087	0.000514201	0.750893	356.898
548.0000	0.755109	0.00052683	0.747786	356.337
547.5000	0.874066	0.000518218	0.744994	355.837
547.0000	0.392855	0.000525987	0.742221	355.317
546.5000	0.186188	0.0005324	0.739539	354.876
546.0000	0.086891	0.000539806	0.736513	354.472
545.5000	0.211191	0.000543967	0.734664	354.081
545.0000	-0.014453	0.000533682	0.733077	353.766
544.5000	0.138085	0.000530586	0.731794	353.474
544.0000	0.149704	0.000512255	0.730495	353.228
543.5000	-0.126336	0.000535811	0.72984	353.038
543.0000	-0.0657911	0.000564283	0.729785	352.896
542.5000	-0.151101	0.000562362	0.730564	352.813
542.0000	0.120058	0.000568844	0.731384	352.771
541.5000	0.308085	0.000573933	0.732656	352.798
541.0000	0.0862763	0.000555345	0.734143	352.871
540.5000	-0.0114869	0.000564217	0.73691	353.006
540.0000	-0.0283981	0.000574513	0.740172	353.179
539.5000	0.401759	0.000604612	0.743602	353.424
539.0000	0.269428	0.000602529	0.747357	353.741
538.5000	0.505843	0.000609708	0.751827	354.116
538.0000	1.00124	0.000632059	0.756878	354.508
537.5000	0.973912	0.000642527	0.76245	354.968
537.0000	1.25714	0.000630072	0.768458	355.501
536.5000	1.1019	0.00064622	0.774737	356.046
536.0000	1.23208	0.000651687	0.782014	356.683
535.5000	1.49751	0.00066153	0.789331	357.334
535.0000	1.7803	0.000693399	0.797503	358.06
534.5000	1.61081	0.000705269	0.80536	358.766
534.0000	1.75275	0.000712941	0.813766	359.536
533.5000	1.69012	0.000728063	0.822451	360.363
533.0000	1.80444	0.00071105	0.830797	361.165
532.5000	1.94164	0.000708808	0.839436	362.007
532.0000	1.78496	0.000707322	0.848849	362.922
531.5000	1.55123	0.000708156	0.858586	363.86
531.0000	1.63271	0.000693528	0.869338	364.844
530.5000	1.94102	0.00068515	0.87945	365.803
530.0000	1.40601	0.000672108	0.889832	366.813
529.5000	1.60742	0.000672908	0.900039	367.806
529.0000	1.77827	0.000694815	0.909841	368.726
528.5000	1.72066	0.000680159	0.919436	369.648
528.0000	1.7188	0.000684375	0.92868	370.536
527.5000	1.58506	0.000681587	0.938318	371.441
527.0000	1.20727	0.000622162	0.948853	372.434
526.5000	0.93436	0.000612727	0.958326	373.35
526.0000	1.44039	0.00061025	0.968349	374.293
525.5000	1.22303	0.000576695	0.977933	375.187
525.0000	1.78437	0.000587737	0.98729	376.062
524.5000	1.55094	0.000594122	0.996178	376.872
524.0000	1.65442	0.000615051	1.00424	377.597
523.5000	1.67049	0.000601233	1.01215	378.341
523.0000	1.43343	0.000618482	1.0196	379.035
522.5000	1.46183	0.000629525	1.02625	379.669
522.0000	1.57941	0.000642603	1.0331	380.294
521.5000	1.32949	0.000648226	1.03995	380.895
521.0000	0.831643	0.000628626	1.04617	381.446
520.5000	0.916927	0.000630795	1.05234	381.993
520.0000	1.08168	0.0006321	1.05759	382.448
519.5000	1.01914	0.00065202	1.06302	382.893
519.0000	0.810962	0.000667014	1.06788	383.302
518.5000	1.00492	0.00067594	1.07198	383.661
518.0000	0.988288	0.000660806	1.07647	384.026
517.5000	0.542152	0.000654004	1.08098	384.384
517.0000	0.401432	0.000668427	1.08564	384.733
516.5000	-0.194191	0.000644055	1.08996	385.039
516.0000	-0.389667	0.000651256	1.09398	385.334
515.5000	-0.222478	0.000623444	1.09748	385.624
515.0000	-0.147062	0.000599289	1.10062	385.86
514.5000	-0.328888	0.000569911	1.10379	386.115
514.0000	-0.259681	0.000559844	1.10681	386.342
513.5000	-0.301698	0.000525259	1.10999	386.578
513.0000	-0.551108	0.000504081	1.11278	386.812
512.5000	-1.10173	0.000511618	1.11603	387.067
512.0000	-0.940445	0.000539458	1.11901	387.288
511.5000	-1.0396	0.000519447	1.12159	387.502
511.0000	-0.833982	0.000522399	1.12423	387.705
510.5000	-0.779335	0.000513162	1.12711	387.907
510.0000	-0.878278	0.000530939	1.13002	388.116
509.5000	-1.23284	0.000517296	1.1327	388.315
509.0000	-1.12015	0.00053001	1.135	388.486
508.5000	-1.24676	0.000556117	1.13714	388.627
508.0000	-0.771043	0.000569441	1.1396	388.766
507.5000	-0.935095	0.000546722	1.14212	388.904
507.0000	-1.14462	0.000551577	1.14478	389.053
506.5000	-0.981847	0.000562797	1.14738	389.198
506.0000	-0.927534	0.000540448	1.14952	389.338
505.5000	-1.03126	0.000509637	1.15162	389.471
505.0000	-0.695463	0.000519605	1.15372	389.595
504.5000	-0.431184	0.00046764	1.15601	389.726
504.0000	-0.645854	0.000439796	1.15792	389.82
503.5000	-0.863191	0.000396681	1.15971	389.906
503.0000	-1.20945	0.000359545	1.16149	389.972
502.5000	-1.05829	0.000369667	1.16284	390.01
502.0000	-1.16871	0.000328619	1.16403	390.037
501.5000	-1.19549	0.000318462	1.16512	390.031
501.0000	-1.23129	0.000322067	1.16617	390.007
500.5000	-0.743744	0.000323627	1.16731	389.964
500.0000	-0.671153	0.000279991	1.16805	389.858
499.5000	-0.974123	0.000243587	1.16783	389.664
499.0000	-0.786135	0.000246688	1.16716	389.341
498.5000	-0.842137	0.000221315	1.16598	388.869
498.0000	-1.25652	0.000226816	1.16447	388.26
497.5000	-1.49798	0.000269879	1.16314	387.492
497.0000	-1.68182	0.000264533	1.16251	386.701
496.5000	-1.54796	0.000284628	1.16301	385.964
496.0000	-1.71581	0.000252235	1.16496	385.455
495.5000	-1.86986	0.000264981	1.16686	385.086
495.0000	-2.12741	0.000296805	1.16748	384.807
494.5000	-2.23988	0.00029378	1.1672	384.541
494.0000	-2.17742	0.000287756	1.16643	384.269
493.5000	-2.19941	0.000274411	1.16544	383.969
493.0000	-2.01962	0.000267387	1.16445	383.685
492.5000	-2.4441	0.000243263	1.16343	383.4
492.0000	-2.65226	0.000231631	1.1621	383.094
491.5000	-3.1009	0.00023507	1.16072	382.833
491.0000	-3.236	0.000235604	1.15945	382.584
490.5000	-2.98178	0.00027646	1.15799	382.354
490.0000	-3.19514	0.000256622	1.15641	382.167
489.5000	-3.32822	0.000203851	1.1546	382.022
489.0000	-3.47672	0.000205113	1.15214	381.832
488.5000	-3.73256	0.000202899	1.14847	381.521
488.0000	-3.91342	0.000206457	1.14304	380.929
487.5000	-4.146	0.000228866	1.1371	380.104
487.0000	-4.00707	0.000204098	1.13227	379.191
486.5000	-4.2374	0.000219382	1.12721	378.12
486.0000	-3.83432	0.000220901	1.12276	377.067
485.5000	-4.12479	0.000233369	1.11989	376.07
485.0000	-4.58283	0.000212296	1.11802	375.19
484.5000	-4.40586	0.000206117	1.11546	374.428
484.0000	-4.73135	0.000202153	1.11186	373.698
483.5000	-4.4767	0.000188633	1.10814	373.047
483.0000	-4.52021	0.000174127	1.10355	372.389
482.5000	-4.20747	0.000110981	1.09897	371.827
482.0000	-4.36867	9.97444E-005	1.09406	371.292
481.5000	-4.63174	9.93853E-005	1.08894	370.732
481.0000	-4.60948	9.64993E-005	1.0841	370.21
480.5000	-4.77105	7.00697E-005	1.079	369.71
480.0000	-5.0073	8.78501E-005	1.07327	369.185
479.5000	-5.00588	4.77854E-005	1.0669	368.598
479.0000	-5.06579	3.96871E-005	1.05799	367.763
478.5000	-4.91885	2.88146E-005	1.04876	366.698
478.0000	-5.15901	-1.1409E-005	1.0416	365.488
477.5000	-5.68635	-3.7263E-006	1.0385	364.554
477.0000	-5.82647	-2.41295E-005	1.03516	363.789
476.5000	-5.66788	-1.91212E-005	1.02681	362.759
476.0000	-5.87186	-6.27665E-006	1.01689	361.494
475.5000	-5.739	-3.70063E-005	1.00677	359.995
475.0000	-5.87608	-4.80243E-005	0.996796	358.293
474.5000	-6.19342	-4.83151E-005	0.987958	356.529
474.0000	-6.36248	-2.74424E-005	0.979487	354.623
473.5000	-6.54359	-3.89992E-005	0.970331	352.464
473.0000	-6.2614	-1.95614E-005	0.961432	350.172
472.5000	-6.5225	-1.30207E-005	0.954452	347.858
472.0000	-6.37732	4.13855E-006	0.950882	345.995
471.5000	-6.13061	4.84105E-006	0.948144	344.504
471.0000	-6.22218	8.8481E-006	0.945718	343.587
470.5000	-6.27993	-5.57442E-006	0.943436	343
470.0000	-6.22909	-2.92624E-006	0.939926	342.679
469.5000	-6.27193	5.29508E-006	0.931949	342.202
469.0000	-6.21756	4.40871E-006	0.918433	341.185
468.5000	-6.37373	-1.32032E-005	0.905973	339.86
468.0000	-6.3663	-8.57371E-006	0.89702	338.56
467.5000	-6.34423	7.82152E-006	0.890578	337.492
467.0000	-6.35779	2.58808E-005	0.885714	336.689
466.5000	-6.56353	2.82189E-005	0.881276	336.106
466.0000	-6.32256	4.04226E-005	0.876034	335.715
465.5000	-6.23324	4.90642E-005	0.870189	335.524
465.0000	-6.13105	2.80263E-005	0.86373	335.59
464.5000	-6.10094	3.60196E-005	0.854776	335.712
464.0000	-6.17046	2.63817E-005	0.842275	335.547
463.5000	-6.32025	2.27413E-005	0.827965	334.982
463.0000	-6.30639	3.90342E-005	0.814661	334.142
462.5000	-6.26326	4.84961E-005	0.803561	333.198
462.0000	-6.03534	6.97756E-005	0.794086	332.248
461.5000	-5.80809	7.10666E-005	0.785801	331.446
461.0000	-5.81765	5.74966E-005	0.7778	330.79
460.5000	-5.89475	7.51522E-005	0.769062	330.219
460.0000	-5.6047	0.000107505	0.760429	329.748
459.5000	-5.52257	0.000111192	0.751061	329.298
459.0000	-5.62404	0.000101545	0.740092	328.734
458.5000	-5.49089	8.12756E-005	0.728509	328.064
458.0000	-5.37871	8.53527E-005	0.715973	327.189
457.5000	-5.47498	8.6483E-005	0.7033	326.088
457.0000	-5.51411	7.94777E-005	0.691752	324.864
456.5000	-5.31881	9.9544E-005	0.682327	323.727
456.0000	-5.37939	0.000100562	0.672028	322.624
455.5000	-5.16859	0.000106246	0.658797	321.256
455.0000	-5.22044	0.000101942	0.646956	319.842
454.5000	-5.25228	9.35722E-005	0.638465	318.625
454.0000	-5.26018	8.9848E-005	0.630557	317.646
453.5000	-5.17883	0.000102435	0.620587	316.777
453.0000	-5.09947	0.000119688	0.610025	315.923
452.5000	-5.14289	0.000121281	0.599759	315.055
452.0000	-4.95292	0.000120498	0.589637	314.139
451.5000	-4.76386	0.000126593	0.579014	313.18
451.0000	-4.69604	0.000122182	0.568956	312.268
450.5000	-4.60503	0.000136893	0.558485	311.302
450.0000	-4.4596	0.000162928	0.549428	310.424
449.5000	-4.24697	0.000169558	0.541711	309.713
449.0000	-4.15673	0.000181608	0.534343	309.162
448.5000	-4.14944	0.000199896	0.524482	308.523
448.0000	-3.95535	0.000225762	0.514243	307.785
447.5000	-3.89472	0.000242464	0.506717	307.177
447.0000	-3.84422	0.000263051	0.501424	306.848
446.5000	-3.68277	0.000278265	0.494398	306.578
446.0000	-3.61192	0.000272067	0.483368	306.058
445.5000	-3.70547	0.000295286	0.472377	305.267
445.0000	-3.62038	0.000302247	0.46307	304.359
444.5000	-3.67374	0.000276796	0.454231	303.42
444.0000	-3.52406	0.00028102	0.445803	302.494
443.5000	-3.62427	0.000275921	0.437516	301.514
443.0000	-3.85957	0.000268748	0.430572	300.65
442.5000	-3.68979	0.000284097	0.424001	299.831
442.0000	-3.5565	0.000294038	0.417941	299.135
441.5000	-3.41052	0.000288983	0.411021	298.391
441.0000	-3.45393	0.000296994	0.404506	297.703
440.5000	-3.6626	0.000304486	0.398122	297.031
440.0000	-3.51418	0.000298395	0.391496	296.343
439.5000	-3.43433	0.0002862	0.384534	295.631
439.0000	-3.1987	0.000285141	0.377085	294.88
438.5000	-3.13823	0.000269318	0.369158	294.108
438.0000	-2.98053	0.000283833	0.361242	293.358
437.5000	-2.76932	0.000293144	0.353857	292.649
437.0000	-2.32996	0.00027923	0.346106	291.925
436.5000	-2.28713	0.000275537	0.340012	291.323
436.0000	-1.94004	0.000289733	0.334367	290.779
435.5000	-1.97201	0.000293776	0.328073	290.242
435.0000	-1.91279	0.000303333	0.321283	289.697
434.5000	-1.90254	0.000314914	0.314355	289.142
434.0000	-1.88946	0.000300346	0.3076	288.571
433.5000	-2.01091	0.000319299	0.301281	288.01
433.0000	-1.93404	0.000316472	0.295174	287.419
432.5000	-1.90812	0.000316964	0.289394	286.852
432.0000	-1.76324	0.000323568	0.283109	286.245
431.5000	-1.75426	0.000323359	0.277099	285.653
431.0000	-1.6385	0.000319985	0.271185	285.058
430.5000	-1.76594	0.000342838	0.265475	284.47
430.0000	-1.88846	0.000323344	0.260291	283.917
429.5000	-1.9179	0.000325599	0.254731	283.335
429.0000	-1.97682	0.000325572	0.249123	282.745
428.5000	-2.05011	0.000335083	0.243584	282.169
428.0000	-2.03111	0.000345675	0.237658	281.585
427.5000	-1.90859	0.000338764	0.232655	281.064
427.0000	-1.756	0.000337154	0.227812	280.547
426.5000	-1.70078	0.000333154	0.223156	280.039
426.0000	-1.72492	0.000329639	0.218314	279.495
425.5000	-1.59316	0.000340709	0.213592	278.924
425.0000	-1.64593	0.000332042	0.208678	278.328
424.5000	-1.45545	0.000335525	0.203829	277.704
424.0000	-1.24935	0.00031652	0.199512	277.113
423.5000	-1.40591	0.000310594	0.196098	276.605
423.0000	-1.42712	0.000308902	0.192412	276.138
422.5000	-1.42815	0.000303721	0.188508	275.711
422.0000	-1.40772	0.000289832	0.184416	275.296
421.5000	-1.25532	0.000296775	0.180452	274.901
421.0000	-1.08469	0.000290674	0.176843	274.534
420.5000	-1.02377	0.000287188	0.173176	274.166
420.0000	-1.03437	0.000282118	0.169533	273.785
419.5000	-1.08695	0.000286292	0.165966	273.393
419.0000	-1.05725	0.000280236	0.162496	273.021
418.5000	-0.913261	0.000268335	0.159124	272.693
418.0000	-0.895128	0.00027351	0.156083	272.372
417.5000	-0.78652	0.000278106	0.152839	272.052
417.0000	-0.874508	0.000274311	0.1501	271.763
416.5000	-0.719998	0.000265007	0.147754	271.545
416.0000	-0.732304	0.000276754	0.145078	271.36
415.5000	-0.674996	0.000283639	0.141913	271.147
415.0000	-0.688257	0.000292385	0.138688	270.893
414.5000	-0.688274	0.000289633	0.135824	270.597
414.0000	-0.489315	0.000292906	0.133478	270.306
413.5000	-0.636777	0.00030091	0.13137	270.018
413.0000	-0.691748	0.000298077	0.129322	269.749
412.5000	-0.778113	0.000292873	0.127395	269.513
412.0000	-0.654624	0.000301208	0.125748	269.312
411.5000	-0.49265	0.00030031	0.123579	269.088
411.0000	-0.456659	0.000306748	0.121628	268.887
410.5000	-0.479815	0.000303068	0.119869	268.696
410.0000	-0.576633	0.000307692	0.118285	268.52
409.5000	-0.664979	0.00031029	0.116853	268.37
409.0000	-0.631511	0.000302611	0.115441	268.239
408.5000	-0.417081	0.000311332	0.113734	268.109
408.0000	-0.509247	0.000314993	0.11175	267.97
407.5000	-0.35266	0.000304805	0.10969	267.818
407.0000	-0.268066	0.000292123	0.107861	267.66
406.5000	-0.224628	0.000283781	0.106167	267.499
406.0000	-0.159434	0.000286781	0.104456	267.333
405.5000	-0.270082	0.000288351	0.102702	267.168
405.0000	-0.1933	0.000272574	0.100882	266.976
404.5000	-0.0751873	0.00027689	0.0992888	266.784
404.0000	-0.154011	0.000281141	0.0980353	266.567
403.5000	-0.233126	0.000286481	0.0967525	266.324
403.0000	-0.270269	0.000273889	0.095877	266.074
402.5000	-0.000252774	0.000270105	0.0946271	265.807
402.0000	-0.223644	0.000265298	0.0938738	265.555
401.5000	-0.09287	0.000262966	0.093257	265.285
401.0000	-0.0699624	0.000264724	0.0925414	265.045
400.5000	-0.143385	0.000270777	0.0918702	264.821
400.0000	-0.180742	0.000262932	0.0912567	264.634
399.5000	-0.128345	0.00025351	0.091257	264.465
399.0000	-0.260596	0.000263548	0.0913571	264.337
398.5000	-0.252237	0.000257409	0.0910617	264.209
398.0000	-0.184918	0.000262923	0.0907438	264.103
397.5000	-0.291329	0.000255448	0.090475	264.027
397.0000	-0.208728	0.000263205	0.090501	263.972
396.5000	-0.174728	0.000266004	0.0903616	263.95
396.0000	-0.271309	0.000271052	0.0901751	263.943
395.5000	-0.179607	0.000259932	0.0895716	263.955
395.0000	-0.222488	0.000256495	0.0893138	264.013
394.5000	-0.1744	0.000263376	0.0893097	264.106
394.0000	-0.271008	0.000262204	0.0892689	264.219
393.5000	-0.18118	0.000283541	0.088931	264.347
393.0000	-0.148809	0.000268263	0.0884908	264.493
392.5000	0.0726068	0.000287292	0.0881263	264.621
392.0000	0.0907838	0.000291187	0.0879839	264.734
391.5000	-0.000716967	0.000303211	0.0880495	264.831
391.0000	0.0322973	0.000302779	0.0879642	264.916
390.5000	-0.0168026	0.000305638	0.0876661	264.994
390.0000	0.0749183	0.00031368	0.0875008	265.073
389.5000	-0.0169657	0.000321601	0.087715	265.146
389.0000	0.0144115	0.000317172	0.0880843	265.213
388.5000	0.052719	0.000319908	0.0883107	265.282
388.0000	0.139976	0.00033378	0.0883306	265.34
387.5000	0.0991846	0.000329504	0.0887805	265.404
387.0000	0.0921627	0.000335408	0.0897038	265.466
386.5000	0.0183978	0.000339849	0.0905881	265.534
386.0000	-0.0124269	0.000350426	0.0913647	265.577
385.5000	-0.0313355	0.000344472	0.0921479	265.616
385.0000	-0.0852265	0.000337754	0.0929412	265.65
384.5000	-0.266071	0.000333346	0.0939114	265.698
384.0000	-0.305403	0.000331274	0.0950956	265.753
383.5000	-0.279522	0.00032971	0.0959182	265.799
383.0000	-0.145878	0.000322658	0.096597	265.845
382.5000	-0.0347767	0.000315953	0.0973421	265.89
382.0000	0.0425438	0.000309333	0.0984557	265.928
381.5000	0.0426857	0.000305329	0.0998089	265.978
381.0000	0.0843223	0.000315022	0.100863	266.029
380.5000	0.115083	0.000306895	0.101779	266.083
380.0000	0.00905906	0.000306421	0.102934	266.138
379.5000	-0.0583977	0.000308415	0.104351	266.213
379.0000	-0.0820221	0.000302098	0.105148	266.265
378.5000	-0.00659473	0.00029601	0.1057	266.323
378.0000	-0.0595261	0.000292121	0.10619	266.371
377.5000	0.0292578	0.000276254	0.106735	266.41
377.0000	0.141373	0.000289572	0.107195	266.442
376.5000	0.157099	0.000304039	0.107926	266.475
376.0000	0.307157	0.000305833	0.108494	266.487
375.5000	0.272099	0.000309641	0.108693	266.484
375.0000	0.229544	0.000314985	0.10903	266.484
374.5000	0.0775841	0.00031831	0.10943	266.482
374.0000	-0.00565413	0.000322503	0.109786	266.474
373.5000	-0.00789261	0.000325612	0.110194	266.477
373.0000	0.0592081	0.000304287	0.110336	266.478
372.5000	0.032575	0.000303457	0.11055	266.477
372.0000	0.172518	0.000307193	0.11074	266.468
371.5000	0.261997	0.000300999	0.110875	266.463
371.0000	0.252081	0.000284284	0.111101	266.451
370.5000	0.357369	0.000306616	0.111631	266.46
370.0000	0.318858	0.000305585	0.11196	266.466
369.5000	0.301751	0.000293566	0.112382	266.486
369.0000	0.317478	0.000300707	0.112913	266.516
368.5000	0.316299	0.000303969	0.113552	266.551
368.0000	0.197347	0.000289045	0.114059	266.599
367.5000	0.200229	0.000284257	0.114726	266.655
367.0000	0.423989	0.000268525	0.115676	266.721
366.5000	0.576915	0.000265638	0.116446	266.798
366.0000	0.445289	0.00025304	0.117148	266.882
365.5000	0.480111	0.000267465	0.117777	266.96
365.0000	0.491206	0.000273116	0.118171	267.03
364.5000	0.433925	0.000288595	0.118778	267.098
364.0000	0.391774	0.000278865	0.119194	267.166
363.5000	0.288948	0.000280157	0.120247	267.263
363.0000	0.236396	0.00027884	0.121221	267.356
362.5000	0.170462	0.000267073	0.121906	267.438
362.0000	0.278171	0.00025454	0.122522	267.515
361.5000	0.361944	0.000267226	0.123298	267.592
361.0000	0.28263	0.000265372	0.123978	267.662
360.5000	0.163027	0.000256646	0.12452	267.74
360.0000	0.231053	0.000260003	0.125105	267.812
359.5000	0.284274	0.000264138	0.12561	267.885
359.0000	0.242139	0.00026173	0.125746	267.945
358.5000	0.16867	0.00027103	0.125846	268.013
358.0000	0.0515348	0.000262965	0.125858	268.07
357.5000	0.190538	0.000265855	0.126038	268.143
357.0000	0.303299	0.000245918	0.12644	268.213
356.5000	0.397908	0.000247477	0.127087	268.277
356.0000	0.547904	0.0002289	0.127392	268.342
355.5000	0.601363	0.000221497	0.127585	268.399
355.0000	0.762137	0.00021815	0.127581	268.45
354.5000	0.858447	0.000222859	0.127695	268.512
354.0000	0.917907	0.000227166	0.127948	268.577
353.5000	0.928717	0.000234832	0.128038	268.627
353.0000	0.904538	0.000230523	0.128151	268.687
352.5000	0.897966	0.000237347	0.128508	268.765
352.0000	1.05529	0.000228803	0.128742	268.832
351.5000	1.14594	0.000220028	0.12907	268.904
351.0000	1.27622	0.000214735	0.129625	268.967
350.5000	1.2355	0.000196979	0.130267	269.027
350.0000	1.18273	0.000201807	0.131001	269.091
349.5000	1.15888	0.000200721	0.131882	269.161
349.0000	1.10963	0.000193995	0.132788	269.226
348.5000	1.11581	0.000198541	0.133827	269.295
348.0000	1.13134	0.000191503	0.134464	269.351
347.5000	0.993443	0.000200273	0.135441	269.413
347.0000	0.96693	0.00020705	0.136515	269.479
346.5000	0.835025	0.000194914	0.13726	269.534
346.0000	0.790071	0.000197024	0.137917	269.588
345.5000	0.683376	0.000182813	0.138813	269.648
345.0000	0.601397	0.000172286	0.139857	269.718
344.5000	0.697183	0.000180854	0.140711	269.77
344.0000	0.858299	0.000183152	0.141767	269.824
343.5000	0.729281	0.000168534	0.142627	269.884
343.0000	0.805066	0.000165951	0.1434	269.946
342.5000	0.896173	0.000170675	0.144133	270.016
342.0000	0.977302	0.000171139	0.144848	270.089
341.5000	0.970492	0.000160604	0.145645	270.159
341.0000	1.10867	0.000173572	0.146595	270.225
340.5000	1.12481	0.000172369	0.147077	270.275
340.0000	0.917062	0.000167626	0.14778	270.346
339.5000	0.958058	0.000158057	0.148264	270.421
339.0000	0.984592	0.000147866	0.149104	270.503
338.5000	1.03508	0.000162896	0.149912	270.576
338.0000	1.05058	0.000166069	0.15075	270.656
337.5000	1.03363	0.000169677	0.151479	270.735
337.0000	1.14514	0.000175554	0.152196	270.821
336.5000	1.08298	0.000165314	0.153059	270.901
336.0000	1.26958	0.000151221	0.153968	270.998
335.5000	1.32793	0.000154402	0.154706	271.078
335.0000	1.19416	0.000153361	0.155546	271.167
334.5000	1.16064	0.000135496	0.156257	271.254
334.0000	1.22893	0.000127504	0.157166	271.347
333.5000	1.32486	0.00012265	0.158382	271.437
333.0000	1.35922	0.000130789	0.159229	271.524
332.5000	1.22704	0.000110419	0.159897	271.622
332.0000	1.41355	0.000114874	0.160797	271.733
331.5000	1.55175	0.000116311	0.161928	271.845
331.0000	1.5712	0.000120035	0.163175	271.965
330.5000	1.61916	0.00012106	0.164097	272.075
330.0000	1.48599	0.000117894	0.165158	272.189
329.5000	1.62652	0.000125113	0.166196	272.302
329.0000	1.72201	0.000100912	0.167169	272.419
328.5000	1.70457	9.21014E-005	0.168214	272.531
328.0000	1.69153	9.45279E-005	0.169059	272.635
327.5000	1.47842	8.5964E-005	0.170039	272.734
327.0000	1.45707	7.68546E-005	0.171216	272.826
326.5000	1.59822	7.99835E-005	0.172674	272.941
326.0000	1.2977	9.23734E-005	0.174252	273.064
325.5000	1.22426	8.94728E-005	0.175707	273.196
325.0000	1.24232	9.05897E-005	0.176926	273.337
324.5000	1.45084	7.71277E-005	0.17827	273.476
324.0000	1.44686	7.88377E-005	0.179918	273.625
323.5000	1.39417	6.65017E-005	0.181592	273.767
323.0000	1.26073	5.51801E-005	0.182997	273.909
322.5000	1.09873	5.03597E-005	0.184412	274.056
322.0000	0.958428	4.33256E-005	0.185828	274.214
321.5000	1.0813	3.34208E-005	0.187556	274.379
321.0000	0.918954	1.24981E-005	0.189438	274.555
320.5000	1.0008	1.36984E-005	0.191249	274.719
320.0000	1.05393	2.12668E-005	0.192781	274.872
319.5000	1.10206	1.50921E-005	0.194456	275.038
319.0000	0.981632	2.33289E-005	0.196134	275.228
318.5000	0.988776	6.404E-006	0.197852	275.43
318.0000	0.965829	-7.96935E-006	0.199286	275.602
317.5000	1.04202	-3.00752E-005	0.200747	275.758
317.0000	0.979205	-3.16163E-005	0.202532	275.916
316.5000	0.847819	-3.89862E-005	0.204336	276.063
316.0000	0.636131	-5.23045E-005	0.206349	276.231
315.5000	0.636638	-4.71896E-005	0.207996	276.399
315.0000	0.606259	-5.52908E-005	0.209861	276.598
314.5000	0.626723	-3.9656E-005	0.211626	276.788
314.0000	0.826132	-4.00582E-005	0.213569	276.984
313.5000	0.785529	-6.80997E-005	0.215526	277.179
313.0000	0.814362	-5.96496E-005	0.217404	277.377
312.5000	0.740007	-5.54968E-005	0.219246	277.582
312.0000	0.521256	-6.8321E-005	0.221429	277.801
311.5000	0.408798	-7.62903E-005	0.223616	278.031
311.0000	0.495816	-8.24029E-005	0.226162	278.272
310.5000	0.668959	-9.55766E-005	0.228488	278.533
310.0000	0.791867	-8.54248E-005	0.230933	278.784
309.5000	0.825879	-7.33076E-005	0.233715	279.063
309.0000	0.919393	-8.30152E-005	0.236726	279.37
308.5000	1.03815	-9.74062E-005	0.239604	279.693
308.0000	1.01824	-9.06257E-005	0.242489	280.012
307.5000	0.80401	-9.7524E-005	0.245978	280.381
307.0000	0.957238	-0.000100482	0.24952	280.734
306.5000	1.02552	-0.000115946	0.253459	281.125
306.0000	1.18636	-0.000135224	0.257563	281.518
305.5000	1.13802	-0.000139873	0.261954	281.966
305.0000	1.25367	-0.000134477	0.266557	282.422
304.5000	1.20089	-0.000137482	0.272117	282.952
304.0000	1.34027	-0.000137459	0.278042	283.508
303.5000	1.32544	-0.000127722	0.284046	284.074
303.0000	1.26056	-0.000133647	0.290508	284.705
302.5000	1.13722	-0.000139269	0.297322	285.375
302.0000	1.10578	-0.000143518	0.30465	286.076
301.5000	0.957968	-0.000158434	0.312352	286.808
301.0000	1.05535	-0.000168079	0.320018	287.56
300.5000	1.04692	-0.000168673	0.327119	288.259
300.0000	0.824961	-0.000176543	0.336109	289.111
299.5000	0.917305	-0.00019701	0.344591	289.928
299.0000	1.21197	-0.000204937	0.35284	290.739
298.5000	1.18614	-0.000198759	0.361576	291.61
298.0000	1.19126	-0.000198599	0.369741	292.417
297.5000	1.20313	-0.000200898	0.378403	293.267
297.0000	1.42525	-0.000196073	0.386368	294.009
296.5000	1.2999	-0.000209185	0.393915	294.732
296.0000	1.42225	-0.000220743	0.401275	295.444
295.5000	1.39434	-0.000211167	0.408667	296.132
295.0000	1.52982	-0.000200112	0.415401	296.743
294.5000	1.5941	-0.000202249	0.422078	297.361
294.0000	1.65126	-0.00019272	0.428394	297.988
293.5000	1.70434	-0.000186419	0.433492	298.512
293.0000	1.69004	-0.00016027	0.438768	299.048
292.5000	1.83062	-0.00016796	0.443826	299.585
292.0000	1.96074	-0.000133364	0.448069	300.056
291.5000	2.01729	-0.000132133	0.452146	300.498
291.0000	1.86247	-0.000115019	0.456356	300.951
290.5000	1.75661	-0.000120179	0.460506	301.393
290.0000	1.70308	-0.000104564	0.464516	301.803
289.5000	1.64041	-9.22299E-005	0.467971	302.187
289.0000	1.56856	-7.47566E-005	0.471254	302.562
288.5000	1.45951	-8.1979E-005	0.474829	302.978
288.0000	1.23995	-6.52949E-005	0.478208	303.378
287.5000	1.29912	-5.55773E-005	0.481739	303.805
287.0000	1.08776	-6.12788E-005	0.48526	304.272
286.5000	1.08621	-4.93443E-005	0.488389	304.722
286.0000	1.03234	-3.89023E-005	0.491519	305.135
285.5000	0.840563	-3.12861E-005	0.495034	305.536
285.0000	0.620551	-1.39538E-005	0.4988	305.967
284.5000	0.556986	-4.76527E-006	0.502246	306.368
284.0000	0.468894	8.53952E-006	0.506099	306.809
283.5000	0.433267	1.15096E-005	0.510254	307.267
283.0000	0.379165	1.24595E-005	0.514152	307.705
282.5000	0.303235	3.84877E-005	0.518351	308.171
282.0000	0.166005	7.02982E-005	0.522517	308.667
281.5000	-0.125308	8.2572E-005	0.526649	309.162
281.0000	-0.289129	8.61908E-005	0.531147	309.675
280.5000	-0.366776	0.000110351	0.535982	310.245
280.0000	-0.464229	0.000132092	0.541142	310.846
279.5000	-0.571529	0.000144075	0.546479	311.475
279.0000	-0.703908	0.000146508	0.551791	312.111
278.5000	-0.823898	0.000169802	0.557849	312.817
278.0000	-0.800724	0.000175594	0.565036	313.599
277.5000	-1.06792	0.000181666	0.572139	314.371
277.0000	-0.772451	0.000197595	0.579828	315.233
276.5000	-0.901612	0.000214924	0.587816	316.143
276.0000	-0.95195	0.000238367	0.595497	317.008
275.5000	-1.07875	0.000247159	0.604726	318.016
275.0000	-0.99196	0.000259685	0.6147	319.107
274.5000	-0.758083	0.000289249	0.625105	320.268
274.0000	-0.68411	0.000292362	0.636576	321.574
273.5000	-0.792585	0.000296217	0.647883	322.826
273.0000	-0.963217	0.000297129	0.660505	324.219
272.5000	-0.967881	0.000326958	0.673822	325.699
272.0000	-0.956614	0.000326808	0.687814	327.272
271.5000	-1.02432	0.000340609	0.703456	329.032
271.0000	-1.12345	0.000372854	0.719526	330.809
270.5000	-1.02232	0.000388194	0.736748	332.699
270.0000	-1.05944	0.000403949	0.754523	334.693
269.5000	-0.977664	0.000453747	0.773077	336.815
269.0000	-0.922327	0.000472186	0.791705	338.939
268.5000	-1.47186	0.000473418	0.812596	341.315
268.0000	-1.66663	0.000455195	0.834787	343.836
267.5000	-2.04022	0.000470499	0.858122	346.506
267.0000	-2.2264	0.000504211	0.883466	349.457
266.5000	-2.60413	0.000529809	0.909713	352.552
266.0000	-3.10238	0.000543491	0.934794	355.475
265.5000	-3.29164	0.000574861	0.962261	358.666
265.0000	-3.28573	0.000561953	0.991449	362.127
264.5000	-3.0545	0.000576425	1.0194	365.494
264.0000	-3.15907	0.000599614	1.04748	368.905
263.5000	-3.53865	0.000646385	1.07728	372.524
263.0000	-3.91184	0.000637897	1.10405	375.807
262.5000	-4.03038	0.000605628	1.13309	379.442
262.0000	-4.1714	0.000621697	1.16008	382.9
261.5000	-4.11096	0.000610338	1.18711	386.357
261.0000	-4.38243	0.000598831	1.21293	389.637
260.5000	-3.96296	0.000648066	1.23951	393.063
260.0000	-4.03014	0.00065003	1.26567	396.484
259.5000	-4.00101	0.00065907	1.29138	399.893
259.0000	-3.58937	0.000667771	1.31667	403.307
258.5000	-3.84001	0.000643661	1.34203	406.716
258.0000	-4.03406	0.000670389	1.36728	410.137
257.5000	-4.36631	0.000655585	1.39096	413.371
257.0000	-4.66591	0.000657939	1.41597	416.814
256.5000	-4.79199	0.000705105	1.43981	420.111
256.0000	-5.14801	0.00065076	1.46533	423.639
255.5000	-5.10214	0.000660779	1.49116	427.216
255.0000	-4.79942	0.00065133	1.51713	430.85
254.5000	-5.03058	0.000661467	1.54188	434.339
254.0000	-5.49876	0.000650725	1.56673	437.857
253.5000	-6.1701	0.000630082	1.59476	441.783
253.0000	-6.76873	0.000637526	1.61961	445.323
252.5000	-7.32672	0.00059361	1.65563	450.553
252.0000	-6.9346	0.000593139	1.68466	454.792
251.5000	-6.58099	0.000520669	1.70923	458.392
251.0000	-6.66651	0.000533108	1.73341	461.912
250.5000	-7.70516	0.000527446	1.75658	465.342
250.0000	-7.81128	0.000466005	1.77768	468.513
249.5000	-7.47319	0.000427297	1.79791	471.586
249.0000	-8.64983	0.000344338	1.81823	474.692
248.5000	-8.39503	0.000318991	1.83703	477.556
248.0000	-7.9215	0.00029573	1.85603	480.48
247.5000	-7.60948	0.000280422	1.87323	483.175
247.0000	-8.48367	0.000240594	1.89071	485.948
246.5000	-8.61239	0.000174873	1.90802	488.683
246.0000	-9.16827	9.26136E-005	1.92524	491.393
245.5000	-9.42001	-2.54248E-006	1.94272	494.226
245.0000	-9.88064	-7.674E-005	1.96027	497.083
244.5000	-9.30066	-4.82548E-005	1.97816	499.991
244.0000	-10.4172	-0.000227861	1.99639	502.993
243.5000	-11.405	-0.000365193	2.01422	505.966
243.0000	-12.3632	-0.000409747	2.03267	509.086
242.5000	-13.4127	-0.000570757	2.05412	512.738
242.0000	-12.9183	-0.00056387	2.07379	516.102
241.5000	-13.6135	-0.000594388	2.097	520.082
241.0000	-13.4272	-0.00050665	2.11964	523.976
240.5000	-13.4629	-0.000432798	2.14612	528.622
240.0000	-13.1147	-0.000591235	2.17204	533.179
239.5000	-12.9746	-0.000713525	2.20458	538.921
239.0000	-14.1019	-0.000728611	2.2352	544.321
238.5000	-14.883	-0.000703632	2.26979	550.466
238.0000	-14.7136	-0.000695871	2.30858	557.464
237.5000	-11.7309	-0.000833916	2.34623	564.33
237.0000	-10.8458	-0.000752868	2.38842	572.089
236.5000	-9.83413	-0.000728967	2.43318	580.398
236.0000	-7.96352	-0.000583455	2.4782	588.822
235.5000	-8.74886	-0.000572702	2.53312	599.263
235.0000	-8.8666	-0.000602131	2.57222	606.787
234.5000	-7.33621	-0.000780007	2.61544	615.17
234.0000	-8.00277	-0.000927067	2.66308	624.496
233.5000	-8.78541	-0.000950505	2.71817	635.382
233.0000	-9.38368	-0.000931736	2.77809	647.396
232.5000	-8.7919	-0.00103883	2.83655	659.349
232.0000	-10.2785	-0.00118074	2.90573	673.779
231.5000	-9.5112	-0.00121437	2.96309	685.996
231.0000	-9.72071	-0.00090304	3.02703	699.871
230.5000	-9.75152	-0.00115417	3.09057	714.004
230.0000	-7.67738	-0.000922767	3.14991	727.551
229.5000	-7.83222	-0.000953724	3.21108	741.8
229.0000	-9.2912	-0.00090235	3.27009	755.898
228.5000	-11.7493	-0.000881915	3.32664	769.704
228.0000	-11.3923	-0.000822998	3.37762	782.463
227.5000	-12.5122	-0.000927878	3.42753	795.408
227.0000	-14.7343	-0.000966162	3.47369	807.75
226.5000	-12.2714	-0.000990481	3.51803	819.987
226.0000	-13.5032	-0.000557707	3.5541	830.363
225.5000	-8.19091	-0.000422971	3.588	840.547
225.0000	-5.90899	-0.000343705	3.61717	849.898
224.5000	-4.4036	-1.19123E-005	3.64161	858.321
224.0000	-1.60279	-0.000154782	3.66174	865.802
223.5000	-2.10773	-0.000191655	3.67771	872.303
223.0000	-2.92756	-0.000588762	3.68988	877.916
222.5000	-4.1217	-0.00102958	3.69915	883.541
222.0000	-2.58634	-0.000753494	3.70304	887.643
221.5000	-1.34329	-0.00109908	3.70317	891.038
221.0000	2.93921	-0.000870734	3.70078	893.357
220.5000	3.48437	-0.000476043	3.69612	895.167
220.0000	2.20866	-0.000667225	3.68926	896.626

##### Extended Information
[Comments]
Sample name	JS187+JS190_5E-5_H2O_56-44
Comment
User
Division
Company	Labo systeme complexes hors equilibre

[Detailed Information]
Creation date	1/23/2024 11:48 AM

Data array type	Linear data array * 4
Horizontal axis	Wavelength [nm]
Vertical axis(1)	CD [mdeg]
Vertical axis(2)	LD [dOD]
Vertical axis(3)	Abs
Vertical axis(4)	HT [V]
Start	700 nm
End	220 nm
Data interval	0.5 nm
Data points	961     

[Measurement Information]
Instrument name	CD Jasco
Model name	J-1500
Serial No.	A005261638

Detector	PM-539
Detector S/N	A0052PM539
  Lock-in amp.	X mode
  HT volt	Auto

Detector	EXPML-535
Detector S/N	A0001
  Lock-in amp.	X mode
  HT volt	Auto

Measurement date	1/23/2024 11:48 AM

Overload detect	1
Photometric mode	CD, LD, Abs, HT
Measure range	700 - 220 nm
Data pitch	0.5 nm
CD scale	200 mdeg/1.0 dOD
FL scale	200 mdeg/1.0 dOD
D.I.T.	1 sec
Bandwidth	1.00 nm
Start mode	Immediately
Scanning speed	500 nm/min
Baseline correction	Baseline
Shutter control	Auto


