TITLE	JS187+JS190_5E-5_H2O_46-54
DATA TYPE	
ORIGIN	JASCO
OWNER	
DATE	24/01/23
TIME	11:16:33
SPECTROMETER/DATA SYSTEM	
LOCALE	1033
RESOLUTION	
DELTAX	-0.5
XUNITS	NANOMETERS
YUNITS	CD [mdeg]
Y2UNITS	LD [dOD]
Y3UNITS	ABSORBANCE
Y4UNITS	HT [V]
FIRSTX	  700.0000
LASTX	  220.0000
NPOINTS	     961
FIRSTY	     0.69303
MAXY	    12.34410
MINY	   -16.61362
XYDATA
700.0000	0.693029	9.09974E-005	-0.0580544	298.833
699.5000	0.713581	6.28582E-005	-0.0591179	298.531
699.0000	0.686324	7.98037E-005	-0.0605465	298.15
698.5000	0.752787	0.000102662	-0.0614872	297.732
698.0000	0.740517	0.000108297	-0.0628761	297.272
697.5000	0.461182	0.000106537	-0.0648054	296.788
697.0000	0.164402	0.000120062	-0.0668424	296.275
696.5000	0.285543	0.000136805	-0.0679391	295.769
696.0000	0.353542	0.000150537	-0.0683674	295.21
695.5000	0.738059	0.000141888	-0.0685858	294.673
695.0000	0.974496	0.000144113	-0.0681114	294.201
694.5000	0.822997	0.000141545	-0.0673939	293.772
694.0000	0.991917	0.000151851	-0.0655687	293.371
693.5000	1.19687	0.000167288	-0.0631336	293.031
693.0000	1.25476	0.000185245	-0.0601038	292.744
692.5000	1.05828	0.000159004	-0.0570533	292.483
692.0000	1.02856	0.00018247	-0.0541411	292.248
691.5000	1.03075	0.00016867	-0.05119	292.026
691.0000	0.945024	0.000164292	-0.0483845	291.81
690.5000	0.824406	0.000158161	-0.046361	291.624
690.0000	1.04597	0.000161859	-0.0444405	291.475
689.5000	1.16623	0.000171286	-0.0420655	291.391
689.0000	1.27782	0.00017218	-0.0387366	291.379
688.5000	1.27594	0.000157394	-0.0352883	291.456
688.0000	1.04759	0.000159612	-0.0310525	291.633
687.5000	0.95166	0.000158185	-0.0265995	291.878
687.0000	0.765467	0.000169596	-0.0229742	292.124
686.5000	0.495518	0.000151506	-0.0201851	292.382
686.0000	0.548463	0.000138367	-0.0189766	292.624
685.5000	0.475162	0.000140189	-0.0189101	292.862
685.0000	0.377607	0.000125379	-0.0194735	293.076
684.5000	0.286975	0.000115824	-0.0204472	293.295
684.0000	0.479962	0.000118751	-0.0220676	293.491
683.5000	0.670591	0.000110438	-0.0229244	293.72
683.0000	0.76993	0.000119787	-0.0236907	293.971
682.5000	0.707683	0.000105277	-0.0237741	294.24
682.0000	0.938401	0.000103333	-0.0240353	294.531
681.5000	0.966827	8.55376E-005	-0.0239995	294.802
681.0000	1.01962	8.89789E-005	-0.0243172	295.053
680.5000	1.24381	9.90817E-005	-0.0251114	295.236
680.0000	1.10004	8.40673E-005	-0.0273494	295.352
679.5000	1.00965	8.2297E-005	-0.0303173	295.394
679.0000	0.941438	7.6453E-005	-0.033941	295.419
678.5000	0.937325	8.18545E-005	-0.0364676	295.414
678.0000	0.951855	9.62469E-005	-0.0387445	295.394
677.5000	1.00718	0.00012261	-0.0399846	295.38
677.0000	1.01852	0.000129841	-0.0405764	295.355
676.5000	1.12372	0.000138511	-0.0403386	295.339
676.0000	1.11087	0.000146993	-0.0400367	295.325
675.5000	0.941151	0.000144101	-0.0396383	295.319
675.0000	0.911682	0.000130365	-0.0390034	295.321
674.5000	0.71996	0.000129997	-0.0379321	295.334
674.0000	0.558799	0.000152566	-0.0368029	295.355
673.5000	0.443862	0.000150371	-0.0356557	295.378
673.0000	0.158585	0.000171031	-0.0352898	295.421
672.5000	0.109985	0.000159465	-0.0349402	295.473
672.0000	0.172205	0.00016704	-0.0343132	295.528
671.5000	0.372372	0.000160242	-0.0332415	295.582
671.0000	0.360631	0.000151225	-0.0320612	295.649
670.5000	0.43806	0.000161421	-0.0306965	295.716
670.0000	0.38209	0.000182565	-0.0296017	295.781
669.5000	0.581267	0.000184461	-0.0290539	295.847
669.0000	0.723742	0.000173482	-0.028306	295.93
668.5000	0.826545	0.000156076	-0.027547	296.018
668.0000	0.80979	0.00014442	-0.0270013	296.118
667.5000	0.774531	0.000146931	-0.0264225	296.238
667.0000	0.643063	0.000143413	-0.0261881	296.352
666.5000	0.738107	0.000142167	-0.0259504	296.465
666.0000	0.581295	0.000152181	-0.0263895	296.59
665.5000	0.524415	0.000132892	-0.0262602	296.729
665.0000	0.56639	0.000128494	-0.0254683	296.855
664.5000	0.76617	0.000114627	-0.0245771	296.961
664.0000	0.609523	0.000106038	-0.0244344	297.061
663.5000	0.549375	0.0001202	-0.0253846	297.151
663.0000	0.673238	0.00012992	-0.0256243	297.229
662.5000	0.562322	0.000138819	-0.0259973	297.298
662.0000	0.504895	0.000110444	-0.0262728	297.372
661.5000	0.0681194	9.4894E-005	-0.0260802	297.428
661.0000	-0.182543	8.43748E-005	-0.0264036	297.462
660.5000	-0.0998663	0.000101307	-0.0268778	297.489
660.0000	0.0481082	0.000111456	-0.0271214	297.505
659.5000	-0.0378561	0.000121959	-0.0278534	297.505
659.0000	-0.00913754	0.000116198	-0.0285135	297.477
658.5000	-0.118379	0.000106931	-0.0290063	297.431
658.0000	0.0092705	0.000106898	-0.0291106	297.371
657.5000	0.35299	0.000114943	-0.0299031	297.28
657.0000	0.152182	0.000107755	-0.0297276	297.178
656.5000	0.112948	0.000120741	-0.030622	297.058
656.0000	0.330748	0.000143465	-0.0314432	296.921
655.5000	0.443919	0.000126391	-0.0307731	296.775
655.0000	0.227045	0.000129332	-0.0307478	296.62
654.5000	0.408966	0.000122584	-0.0310385	296.483
654.0000	0.396592	0.000127243	-0.0305878	296.34
653.5000	0.598153	0.000134853	-0.0293689	296.21
653.0000	0.752859	0.000155228	-0.0276672	296.107
652.5000	0.847762	0.000172831	-0.0259703	296.029
652.0000	0.982035	0.000174562	-0.0240072	295.985
651.5000	0.92014	0.000179127	-0.0215549	295.969
651.0000	0.987131	0.00015498	-0.018679	295.977
650.5000	0.987361	0.000186887	-0.016438	296.021
650.0000	1.25506	0.000188428	-0.0137041	296.096
649.5000	1.00924	0.000198561	-0.0115816	296.188
649.0000	1.07661	0.000197946	-0.00923955	296.301
648.5000	1.16648	0.000189414	-0.00770408	296.446
648.0000	1.23701	0.000191899	-0.00597646	296.6
647.5000	0.993075	0.000194678	-0.00428827	296.777
647.0000	0.969424	0.000202735	-0.00318079	296.97
646.5000	0.998068	0.000184435	-0.00238545	297.155
646.0000	0.894364	0.000179224	-0.000895774	297.324
645.5000	0.682885	0.000186272	-0.000227315	297.488
645.0000	0.469502	0.000182873	-0.000761019	297.634
644.5000	0.476299	0.000188894	-0.000980327	297.762
644.0000	0.231172	0.000190468	-0.00126273	297.848
643.5000	0.315642	0.000166853	-0.00198432	297.904
643.0000	0.545768	0.000196101	-0.00269542	297.933
642.5000	0.85254	0.000204499	-0.00314893	297.958
642.0000	0.981461	0.000222836	-0.00352978	297.953
641.5000	0.904235	0.000219283	-0.00405274	297.927
641.0000	0.950759	0.000223965	-0.00426539	297.884
640.5000	0.891948	0.000238596	-0.00399338	297.836
640.0000	0.96173	0.000234252	-0.00346388	297.779
639.5000	1.05469	0.000232161	-0.00263466	297.709
639.0000	0.976751	0.000233463	-0.00197552	297.638
638.5000	1.00984	0.000210349	-0.000891003	297.555
638.0000	1.09599	0.000223086	-0.000325707	297.475
637.5000	1.21973	0.000237208	-4.30442E-006	297.391
637.0000	1.5162	0.000245486	0.00121516	297.307
636.5000	1.52912	0.000229121	0.0021983	297.229
636.0000	1.78199	0.000209568	0.00255616	297.159
635.5000	1.87216	0.000230711	0.00306575	297.095
635.0000	1.61509	0.000219863	0.00412003	297.046
634.5000	1.25471	0.00020776	0.00500453	296.995
634.0000	0.907315	0.000204165	0.00579538	296.947
633.5000	0.928445	0.000184084	0.00625897	296.907
633.0000	0.702597	0.000181552	0.00709108	296.854
632.5000	0.673836	0.000176007	0.00727436	296.802
632.0000	0.859116	0.00016601	0.00736297	296.741
631.5000	0.888249	0.000185842	0.00788198	296.693
631.0000	1.12409	0.000210243	0.00835383	296.646
630.5000	1.08681	0.000207107	0.00866554	296.584
630.0000	1.10253	0.000220476	0.00917132	296.534
629.5000	1.24572	0.000211269	0.00980268	296.481
629.0000	1.28147	0.000221704	0.0100617	296.417
628.5000	1.40333	0.00021902	0.0101512	296.356
628.0000	1.51066	0.000243561	0.0103978	296.284
627.5000	1.34291	0.00026739	0.0110069	296.213
627.0000	1.00931	0.000261433	0.0111569	296.147
626.5000	1.01355	0.000277418	0.0110466	296.086
626.0000	1.14954	0.000271842	0.0110193	296.025
625.5000	1.19564	0.000277532	0.0116467	295.967
625.0000	1.30304	0.00026992	0.0125358	295.927
624.5000	1.481	0.000271751	0.0134304	295.891
624.0000	1.36241	0.000285145	0.0144382	295.885
623.5000	1.05962	0.000269511	0.0155639	295.894
623.0000	0.73371	0.000273373	0.016463	295.898
622.5000	0.565293	0.000273462	0.0176446	295.926
622.0000	0.502565	0.000285563	0.0185175	295.961
621.5000	0.561734	0.000298132	0.0192762	295.992
621.0000	0.600811	0.000295397	0.0202206	296.044
620.5000	0.41959	0.00029261	0.0209336	296.111
620.0000	0.246966	0.000281639	0.0216267	296.198
619.5000	0.131819	0.000265874	0.0227161	296.314
619.0000	0.242147	0.00024403	0.0239829	296.42
618.5000	0.323148	0.000240364	0.0257383	296.547
618.0000	0.353724	0.000237494	0.0274905	296.676
617.5000	0.574172	0.000259259	0.0282508	296.813
617.0000	0.460116	0.00027023	0.0287141	296.955
616.5000	0.515913	0.000281561	0.0292275	297.096
616.0000	0.60538	0.000282708	0.0300516	297.224
615.5000	0.744369	0.000268126	0.0304795	297.352
615.0000	1.07457	0.000288772	0.0307542	297.475
614.5000	1.20914	0.000282381	0.0308992	297.602
614.0000	0.992729	0.000267157	0.0310911	297.73
613.5000	1.09704	0.000258949	0.0316552	297.871
613.0000	1.09233	0.000263324	0.0320408	298.012
612.5000	1.13773	0.000268655	0.0324333	298.143
612.0000	1.43398	0.000268091	0.0328389	298.265
611.5000	1.40291	0.000276855	0.0335031	298.381
611.0000	1.27567	0.000281445	0.033874	298.519
610.5000	1.4269	0.00028841	0.0339355	298.635
610.0000	1.52055	0.000280438	0.0338209	298.74
609.5000	1.48514	0.000274509	0.0343246	298.844
609.0000	1.24716	0.000273283	0.0349726	298.957
608.5000	1.35798	0.00027611	0.0358486	299.057
608.0000	1.26444	0.000291326	0.036227	299.141
607.5000	1.21909	0.000294665	0.0361859	299.224
607.0000	1.28666	0.000280046	0.0365988	299.314
606.5000	1.33826	0.000271222	0.0371252	299.403
606.0000	1.48751	0.000298065	0.0383391	299.49
605.5000	1.3158	0.000302374	0.0392397	299.577
605.0000	1.26513	0.000293422	0.0403291	299.648
604.5000	1.3698	0.000299583	0.0411303	299.713
604.0000	1.27207	0.000317724	0.042297	299.786
603.5000	1.3232	0.000325545	0.0435743	299.853
603.0000	1.44097	0.000320456	0.0444187	299.918
602.5000	1.43219	0.000301266	0.045724	299.981
602.0000	1.61084	0.000304671	0.0472515	300.048
601.5000	1.46599	0.000309077	0.0486447	300.115
601.0000	1.49036	0.00028914	0.0499976	300.177
600.5000	1.7146	0.000298281	0.0518673	300.237
600.0000	1.6927	0.000289997	0.0534554	300.293
599.5000	1.76485	0.000298665	0.0559449	300.35
599.0000	1.76002	0.000306097	0.0579386	300.395
598.5000	1.66402	0.000303356	0.060387	300.424
598.0000	1.67853	0.000312068	0.0624649	300.459
597.5000	1.71766	0.000320618	0.0643034	300.488
597.0000	1.78139	0.00032058	0.0666111	300.533
596.5000	1.85664	0.000317597	0.0688935	300.551
596.0000	2.00769	0.000339029	0.0713222	300.578
595.5000	1.72183	0.000326129	0.0736887	300.614
595.0000	1.63684	0.000317913	0.0763407	300.639
594.5000	1.73382	0.000333581	0.079102	300.674
594.0000	1.77363	0.000349352	0.0815082	300.728
593.5000	1.74021	0.000345833	0.0842652	300.76
593.0000	1.71356	0.00034916	0.0876032	300.815
592.5000	1.92045	0.000367126	0.0904445	300.889
592.0000	1.76898	0.000383244	0.0933091	300.987
591.5000	1.42608	0.000370671	0.0958969	301.087
591.0000	1.40534	0.000380084	0.0990843	301.2
590.5000	1.29044	0.000387951	0.102089	301.337
590.0000	1.26527	0.000374921	0.105339	301.487
589.5000	1.2423	0.000370326	0.108906	301.653
589.0000	1.0117	0.000373533	0.112559	301.831
588.5000	0.836394	0.00036742	0.116248	302.038
588.0000	0.578325	0.000366787	0.120523	302.286
587.5000	0.563258	0.000374743	0.124868	302.557
587.0000	0.636886	0.000370254	0.129358	302.877
586.5000	0.612508	0.000376651	0.133562	303.179
586.0000	0.339433	0.000385684	0.138439	303.496
585.5000	0.233419	0.00040143	0.143109	303.846
585.0000	0.273121	0.000426546	0.147757	304.209
584.5000	0.241878	0.000444978	0.152393	304.572
584.0000	0.169615	0.000446373	0.157773	304.982
583.5000	0.137373	0.000440869	0.163357	305.41
583.0000	-0.0368477	0.000452737	0.169794	305.899
582.5000	0.0793784	0.000474443	0.176193	306.425
582.0000	-0.0930369	0.000477082	0.182724	306.959
581.5000	-0.144641	0.000514438	0.189826	307.555
581.0000	0.0389165	0.000516311	0.197419	308.173
580.5000	-0.103864	0.000521314	0.205254	308.822
580.0000	-0.220342	0.000543753	0.212968	309.479
579.5000	-0.373785	0.000547106	0.220678	310.151
579.0000	-0.473607	0.000581063	0.228847	310.858
578.5000	-0.506598	0.000604442	0.237791	311.6
578.0000	-0.617175	0.000614912	0.246896	312.39
577.5000	-0.787955	0.000619054	0.256166	313.254
577.0000	-1.00542	0.000645602	0.266232	314.112
576.5000	-1.01231	0.000625106	0.277315	315.065
576.0000	-1.24577	0.000620861	0.288158	316.004
575.5000	-1.40838	0.000627503	0.299976	317.026
575.0000	-1.5363	0.000655831	0.310716	318.001
574.5000	-1.83023	0.000665297	0.322772	319.077
574.0000	-1.92163	0.000663943	0.334914	320.136
573.5000	-2.16219	0.000675677	0.347389	321.242
573.0000	-2.69032	0.000684799	0.360252	322.438
572.5000	-3.11499	0.000698392	0.372615	323.595
572.0000	-3.43879	0.000712526	0.386573	324.922
571.5000	-4.03867	0.000703929	0.400747	326.252
571.0000	-4.17794	0.000705352	0.416339	327.67
570.5000	-4.67697	0.000709449	0.431715	329.126
570.0000	-4.86058	0.000719452	0.446536	330.543
569.5000	-5.07774	0.000738169	0.462935	332.061
569.0000	-5.71005	0.000733929	0.47945	333.593
568.5000	-6.18548	0.000763381	0.494795	335.077
568.0000	-6.41133	0.000790048	0.510614	336.645
567.5000	-6.86811	0.000811487	0.526576	338.225
567.0000	-6.97653	0.00081098	0.542345	339.751
566.5000	-7.05477	0.000799561	0.557867	341.239
566.0000	-7.4766	0.000828487	0.573194	342.711
565.5000	-7.51267	0.000824775	0.587994	344.169
565.0000	-7.64244	0.00082933	0.602763	345.594
564.5000	-7.62204	0.000827451	0.61746	347.008
564.0000	-7.72998	0.000854325	0.631237	348.3
563.5000	-7.72558	0.000864222	0.644039	349.528
563.0000	-7.5765	0.00089516	0.656785	350.784
562.5000	-7.52416	0.000890628	0.668615	351.923
562.0000	-7.78116	0.000910013	0.67994	353.006
561.5000	-8.21398	0.000906668	0.692162	354.136
561.0000	-8.43247	0.000903628	0.703237	355.187
560.5000	-8.1469	0.000910535	0.713469	356.163
560.0000	-8.03579	0.00090795	0.723142	357.05
559.5000	-7.94562	0.000884358	0.732184	357.824
559.0000	-7.7882	0.000871456	0.739755	358.465
558.5000	-7.91019	0.000861325	0.746048	359.008
558.0000	-7.71344	0.00085472	0.751309	359.45
557.5000	-7.93973	0.000874087	0.756231	359.82
557.0000	-8.01867	0.000863931	0.760369	360.09
556.5000	-7.57481	0.000865483	0.763407	360.292
556.0000	-7.34402	0.00086256	0.765051	360.397
555.5000	-6.99387	0.000840026	0.766489	360.443
555.0000	-7.09885	0.000819351	0.767235	360.393
554.5000	-7.25451	0.000779959	0.767583	360.256
554.0000	-6.6618	0.000785736	0.766541	360.03
553.5000	-6.72778	0.000771606	0.765021	359.75
553.0000	-6.52085	0.000744393	0.763091	359.436
552.5000	-6.30364	0.000738054	0.761248	359.077
552.0000	-6.19989	0.000695492	0.758711	358.637
551.5000	-6.1828	0.000695529	0.755982	358.19
551.0000	-6.25245	0.000674219	0.752658	357.724
550.5000	-6.4622	0.000672541	0.749082	357.213
550.0000	-6.33842	0.000699284	0.745433	356.666
549.5000	-6.04973	0.000693144	0.742024	356.125
549.0000	-5.34848	0.000664415	0.738175	355.602
548.5000	-5.15056	0.000673738	0.734411	355.1
548.0000	-5.28857	0.000691745	0.731453	354.558
547.5000	-5.13616	0.000683063	0.728617	354.055
547.0000	-5.21363	0.0006982	0.725999	353.554
546.5000	-5.04674	0.000722998	0.723331	353.116
546.0000	-5.13969	0.000737312	0.720379	352.722
545.5000	-4.8904	0.000755435	0.718688	352.349
545.0000	-4.89429	0.00078141	0.717304	352.059
544.5000	-4.56409	0.000784822	0.716118	351.778
544.0000	-4.58202	0.000817563	0.715072	351.56
543.5000	-4.76178	0.000831527	0.714652	351.396
543.0000	-4.67275	0.000839338	0.714711	351.267
542.5000	-4.35292	0.0008535	0.715524	351.188
542.0000	-4.02598	0.00085085	0.716416	351.154
541.5000	-4.02487	0.000839605	0.717769	351.189
541.0000	-4.30595	0.000841583	0.719355	351.273
540.5000	-4.6575	0.00085828	0.722103	351.406
540.0000	-4.38897	0.00087565	0.725333	351.574
539.5000	-4.53152	0.000878635	0.728798	351.822
539.0000	-4.53588	0.000869762	0.732435	352.126
538.5000	-4.49432	0.000852785	0.736632	352.469
538.0000	-4.69705	0.000858167	0.741548	352.845
537.5000	-4.85294	0.000849334	0.747156	353.308
537.0000	-4.75633	0.000858657	0.752996	353.819
536.5000	-4.86984	0.000854639	0.759191	354.354
536.0000	-4.98471	0.000844169	0.766216	354.961
535.5000	-4.89374	0.000832014	0.773271	355.58
535.0000	-5.12947	0.00085146	0.781214	356.278
534.5000	-5.57817	0.000849876	0.788799	356.952
534.0000	-5.45132	0.000866375	0.797085	357.706
533.5000	-5.73871	0.000881082	0.805625	358.513
533.0000	-6.11826	0.000873498	0.813783	359.291
532.5000	-6.00025	0.000870744	0.822173	360.102
532.0000	-6.26241	0.000877668	0.831233	360.974
531.5000	-6.37749	0.000865747	0.840698	361.877
531.0000	-6.36953	0.000884569	0.851234	362.833
530.5000	-6.34449	0.00088455	0.86123	363.775
530.0000	-6.41667	0.000872032	0.871591	364.778
529.5000	-6.3344	0.000883539	0.881485	365.731
529.0000	-6.16943	0.000897429	0.891077	366.623
528.5000	-6.36999	0.000862691	0.900564	367.529
528.0000	-6.2687	0.000848162	0.909491	368.377
527.5000	-5.80604	0.000861548	0.918797	369.24
527.0000	-5.33171	0.000882994	0.92897	370.188
526.5000	-5.4556	0.000863213	0.938315	371.084
526.0000	-5.15523	0.000874385	0.948184	372.005
525.5000	-5.08011	0.000858166	0.957543	372.869
525.0000	-4.70179	0.000834887	0.966594	373.704
524.5000	-4.64645	0.000830306	0.975108	374.468
524.0000	-4.53348	0.00081534	0.982966	375.166
523.5000	-4.41711	0.000846614	0.99063	375.878
523.0000	-4.6909	0.000821428	0.997823	376.538
522.5000	-4.49585	0.000797264	1.00432	377.151
522.0000	-4.12035	0.000815828	1.01106	377.76
521.5000	-3.73446	0.000819083	1.01778	378.343
521.0000	-4.03014	0.000826711	1.02386	378.875
520.5000	-3.75822	0.000810311	1.02969	379.38
520.0000	-3.08277	0.000845365	1.03475	379.811
519.5000	-3.31136	0.000852039	1.04001	380.232
519.0000	-3.53091	0.000845071	1.04463	380.612
518.5000	-3.54308	0.000856068	1.04854	380.947
518.0000	-3.28403	0.000815533	1.05289	381.293
517.5000	-3.30932	0.000806835	1.05721	381.627
517.0000	-2.86539	0.0008286	1.06167	381.951
516.5000	-2.53017	0.000848254	1.06597	382.252
516.0000	-2.14325	0.000862572	1.06989	382.535
515.5000	-1.88833	0.000828653	1.0732	382.8
515.0000	-1.82436	0.000801276	1.07625	383.024
514.5000	-1.67661	0.000841845	1.07922	383.255
514.0000	-1.86869	0.000809214	1.08199	383.452
513.5000	-2.22062	0.000789629	1.08486	383.651
513.0000	-1.84095	0.000782288	1.08736	383.849
512.5000	-1.62351	0.000750223	1.09051	384.091
512.0000	-1.69312	0.000731765	1.0934	384.299
511.5000	-1.46811	0.000718443	1.09586	384.498
511.0000	-1.45648	0.000745722	1.09847	384.697
510.5000	-1.15381	0.000731138	1.1013	384.892
510.0000	-1.38809	0.000719975	1.10402	385.077
509.5000	-1.56012	0.000727436	1.10648	385.25
509.0000	-1.56683	0.000719357	1.10878	385.418
508.5000	-1.39909	0.000680727	1.11082	385.547
508.0000	-1.21091	0.00063387	1.11328	385.686
507.5000	-1.21588	0.0006357	1.11568	385.809
507.0000	-1.18118	0.000597878	1.11832	385.953
506.5000	-1.29423	0.000553603	1.12081	386.084
506.0000	-1.00114	0.000555641	1.12282	386.208
505.5000	-0.550733	0.000574408	1.12493	386.342
505.0000	-0.166296	0.000581757	1.12699	386.461
504.5000	0.15208	0.000587484	1.12911	386.571
504.0000	0.0674478	0.000568832	1.13087	386.647
503.5000	0.0274948	0.000552701	1.13248	386.711
503.0000	-0.166839	0.000550162	1.13411	386.759
502.5000	-0.080892	0.000544885	1.13536	386.785
502.0000	-0.0782738	0.000500556	1.13655	386.812
501.5000	0.105482	0.000473445	1.13761	386.803
501.0000	0.434582	0.000503802	1.13862	386.774
500.5000	0.294396	0.000510126	1.13948	386.7
500.0000	0.271453	0.000516025	1.13998	386.564
499.5000	0.361709	0.000539492	1.13956	386.35
499.0000	0.286002	0.00052809	1.13856	385.991
498.5000	0.424689	0.000535075	1.13718	385.497
498.0000	0.861942	0.00054223	1.1355	384.874
497.5000	1.14823	0.000532607	1.13414	384.108
497.0000	1.00322	0.00052386	1.13362	383.335
496.5000	1.01262	0.000521295	1.1343	382.625
496.0000	1.15878	0.000481021	1.13641	382.139
495.5000	1.02853	0.000487562	1.13857	381.802
495.0000	1.12685	0.000450473	1.13928	381.535
494.5000	1.57147	0.000453602	1.13901	381.273
494.0000	1.92665	0.000427981	1.13827	381.006
493.5000	2.10648	0.000445725	1.13723	380.703
493.0000	2.3485	0.000423667	1.13632	380.429
492.5000	2.2627	0.000369823	1.13536	380.153
492.0000	2.2697	0.000322393	1.13416	379.865
491.5000	2.08389	0.000319285	1.13284	379.611
491.0000	2.1477	0.000319991	1.13172	379.382
490.5000	2.20276	0.00033465	1.13047	379.179
490.0000	1.97516	0.000331221	1.1291	379.018
489.5000	2.22369	0.000309429	1.12734	378.879
489.0000	2.26579	0.000286929	1.12484	378.686
488.5000	2.26203	0.000257775	1.12087	378.342
488.0000	2.09088	0.00026418	1.11513	377.718
487.5000	2.19522	0.000269392	1.10903	376.88
487.0000	2.37536	0.000272974	1.10408	375.96
486.5000	2.31401	0.000251172	1.09884	374.878
486.0000	2.42484	0.000247363	1.09441	373.834
485.5000	2.16884	0.000265314	1.09167	372.859
485.0000	2.37432	0.000266179	1.08998	372.005
484.5000	2.66906	0.000274844	1.0875	371.258
484.0000	2.62683	0.000283526	1.08406	370.55
483.5000	2.87582	0.000297739	1.08045	369.917
483.0000	2.994	0.000295142	1.07587	369.265
482.5000	3.20928	0.000281566	1.07122	368.7
482.0000	3.35299	0.000277161	1.06623	368.159
481.5000	3.27466	0.000271159	1.06133	367.626
481.0000	3.16761	0.000277118	1.05656	367.117
480.5000	3.03875	0.000269432	1.05157	366.632
480.0000	3.26775	0.000260095	1.04595	366.123
479.5000	3.14409	0.000251902	1.03963	365.547
479.0000	3.21584	0.000233753	1.03048	364.689
478.5000	3.01329	0.000218694	1.02107	363.612
478.0000	3.00373	0.000217256	1.01426	362.451
477.5000	2.91194	0.000235671	1.01163	361.574
477.0000	2.76249	0.000245557	1.0085	360.838
476.5000	3.03188	0.000243949	1.00004	359.802
476.0000	2.73995	0.000227044	0.989967	358.53
475.5000	2.68933	0.000224684	0.979697	357.024
475.0000	2.79064	0.000237441	0.969613	355.323
474.5000	2.77623	0.000240338	0.960914	353.586
474.0000	2.47445	0.000221841	0.952503	351.699
473.5000	2.61159	0.000215125	0.943325	349.553
473.0000	2.53756	0.000224803	0.934448	347.28
472.5000	2.68283	0.000237126	0.927819	345.019
472.0000	2.65803	0.000248354	0.924791	343.226
471.5000	2.79602	0.000249771	0.922593	341.802
471.0000	2.78904	0.000263812	0.920656	340.942
470.5000	2.77421	0.000261481	0.918944	340.419
470.0000	3.00995	0.000262179	0.915656	340.123
469.5000	2.75246	0.000268478	0.907526	339.633
469.0000	2.6022	0.000245634	0.893907	338.611
468.5000	2.20644	0.000240892	0.881606	337.312
468.0000	2.22434	0.000256233	0.872976	336.054
467.5000	2.35001	0.000248012	0.867054	335.045
467.0000	2.38808	0.000237933	0.862657	334.296
466.5000	2.11447	0.000232782	0.858787	333.775
466.0000	2.15601	0.000236208	0.853897	333.423
465.5000	2.0406	0.000242932	0.848611	333.291
465.0000	2.30875	0.000259514	0.842512	333.393
464.5000	2.13541	0.000253728	0.83357	333.516
464.0000	1.74454	0.00025434	0.82089	333.333
463.5000	1.81628	0.00026033	0.806463	332.759
463.0000	1.77286	0.000259942	0.793247	331.933
462.5000	1.70078	0.000255981	0.782459	331.026
462.0000	1.50218	0.000271972	0.773239	330.108
461.5000	1.69582	0.000295859	0.765086	329.324
461.0000	1.77549	0.000294331	0.757192	328.682
460.5000	1.90616	0.000282621	0.748604	328.129
460.0000	2.00953	0.000315482	0.740138	327.678
459.5000	1.92409	0.000300105	0.730932	327.246
459.0000	1.74807	0.000322984	0.719984	326.687
458.5000	1.86995	0.000344605	0.708479	326.029
458.0000	1.78767	0.000346751	0.696016	325.166
457.5000	1.53794	0.000338448	0.683438	324.08
457.0000	1.47375	0.000344446	0.672063	322.88
456.5000	1.3074	0.000336527	0.663058	321.791
456.0000	1.51993	0.00035748	0.65283	320.7
455.5000	1.43134	0.000367102	0.639699	319.349
455.0000	1.35192	0.000382934	0.628233	317.979
454.5000	1.42906	0.000390611	0.620197	316.814
454.0000	1.40174	0.000386494	0.6127	315.879
453.5000	1.61843	0.000408897	0.603088	315.05
453.0000	1.56012	0.000411575	0.592824	314.229
452.5000	1.63435	0.000430981	0.582887	313.397
452.0000	1.49642	0.000437799	0.573018	312.51
451.5000	1.361	0.000434181	0.562701	311.585
451.0000	1.31625	0.000446785	0.552932	310.705
450.5000	1.35815	0.00045324	0.542802	309.776
450.0000	1.25752	0.000468091	0.534098	308.936
449.5000	1.34113	0.000469354	0.526706	308.259
449.0000	1.49567	0.000484627	0.519654	307.741
448.5000	1.15843	0.000490875	0.510029	307.127
448.0000	1.31282	0.000509547	0.499918	306.404
447.5000	1.27606	0.00051137	0.492872	305.844
447.0000	1.02806	0.000503937	0.487855	305.543
446.5000	1.03869	0.000517068	0.480933	305.284
446.0000	1.09677	0.000522802	0.469714	304.748
445.5000	0.955387	0.000537119	0.458973	303.983
445.0000	0.711512	0.000531083	0.449853	303.097
444.5000	0.51179	0.000532982	0.441149	302.174
444.0000	0.488791	0.000532757	0.432882	301.267
443.5000	0.486535	0.000544343	0.424704	300.3
443.0000	0.344601	0.000559273	0.417892	299.451
442.5000	0.261111	0.000559759	0.411464	298.648
442.0000	0.269837	0.000561191	0.405526	297.966
441.5000	0.379526	0.000552013	0.398732	297.236
441.0000	0.33665	0.000584394	0.39236	296.564
440.5000	0.330988	0.000593789	0.386027	295.899
440.0000	0.536318	0.000604278	0.379438	295.216
439.5000	0.625968	0.000606061	0.372746	294.532
439.0000	0.673074	0.000625279	0.36559	293.811
438.5000	0.833502	0.000642506	0.3579	293.063
438.0000	0.688191	0.000654651	0.350083	292.324
437.5000	0.678302	0.000649876	0.342654	291.613
437.0000	0.775396	0.000647005	0.334955	290.896
436.5000	0.829412	0.000655416	0.328949	290.304
436.0000	0.838461	0.000667439	0.323429	289.773
435.5000	0.839401	0.000672275	0.317408	289.263
435.0000	0.984895	0.000679727	0.310888	288.744
434.5000	1.11452	0.000687061	0.304153	288.208
434.0000	1.06562	0.00068385	0.297608	287.657
433.5000	0.930568	0.000692388	0.291512	287.119
433.0000	0.771906	0.000679625	0.285586	286.545
432.5000	0.736712	0.000675106	0.280046	286.001
432.0000	0.678551	0.000674176	0.274067	285.424
431.5000	0.697859	0.000671187	0.26802	284.83
431.0000	0.637775	0.000664727	0.262261	284.25
430.5000	0.528316	0.000675386	0.256891	283.695
430.0000	0.468628	0.00066934	0.251967	283.166
429.5000	0.394703	0.000682228	0.246643	282.607
429.0000	0.24237	0.000679354	0.241411	282.051
428.5000	0.346837	0.000687526	0.236123	281.5
428.0000	0.356869	0.000693707	0.230384	280.933
427.5000	0.422681	0.000692939	0.225572	280.43
427.0000	0.276894	0.00069135	0.220864	279.926
426.5000	0.256935	0.000692334	0.216168	279.416
426.0000	0.080809	0.000705121	0.211297	278.871
425.5000	0.247505	0.000712393	0.206641	278.306
425.0000	0.22544	0.00071901	0.2018	277.717
424.5000	0.29462	0.000727708	0.196986	277.098
424.0000	0.373573	0.000732757	0.192803	276.519
423.5000	0.186693	0.000730228	0.189467	276.019
423.0000	0.0514971	0.000736589	0.185983	275.572
422.5000	0.145008	0.000732725	0.182191	275.154
422.0000	0.176339	0.000732476	0.178066	274.737
421.5000	0.16398	0.00073003	0.17413	274.346
421.0000	0.167373	0.000730387	0.170646	273.99
420.5000	0.135115	0.000733963	0.167036	273.628
420.0000	0.0305801	0.000728632	0.163341	273.243
419.5000	-0.00721504	0.000724515	0.159818	272.856
419.0000	-0.040262	0.000725066	0.156297	272.48
418.5000	0.0427309	0.00071107	0.15297	272.156
418.0000	-0.0354605	0.000717477	0.150097	271.85
417.5000	-0.00437168	0.000714984	0.14694	271.539
417.0000	-0.0455433	0.00071127	0.144352	271.263
416.5000	-0.0831853	0.000713283	0.14216	271.058
416.0000	-0.0951031	0.000705991	0.139703	270.893
415.5000	0.0182746	0.000713912	0.136563	270.682
415.0000	0.0315632	0.000713423	0.133398	270.434
414.5000	0.0710217	0.000714082	0.13056	270.141
414.0000	0.120103	0.000716145	0.128351	269.862
413.5000	0.237707	0.000732519	0.126204	269.571
413.0000	0.106147	0.000728306	0.124257	269.311
412.5000	0.24909	0.000730229	0.122381	269.08
412.0000	0.267843	0.000738657	0.120681	268.874
411.5000	0.545034	0.000748956	0.118592	268.658
411.0000	0.525788	0.000753689	0.116623	268.456
410.5000	0.539456	0.000756126	0.11498	268.275
410.0000	0.579323	0.000768928	0.113695	268.125
409.5000	0.606297	0.000774645	0.112496	267.994
409.0000	0.533776	0.00077678	0.111332	267.885
408.5000	0.509194	0.000770498	0.109685	267.761
408.0000	0.401472	0.000772002	0.107767	267.628
407.5000	0.504275	0.000776682	0.105687	267.474
407.0000	0.511271	0.000763821	0.10401	267.329
406.5000	0.338454	0.000754475	0.102483	267.183
406.0000	0.285334	0.000768107	0.101049	267.04
405.5000	0.069836	0.000767304	0.0992981	266.876
405.0000	-0.0884128	0.000751754	0.0976021	266.695
404.5000	0.0428347	0.000760555	0.0961051	266.511
404.0000	-0.088328	0.000765917	0.094933	266.301
403.5000	-0.25618	0.000765275	0.0937561	266.068
403.0000	-0.407822	0.000764788	0.0931237	265.838
402.5000	-0.305797	0.000770918	0.0919009	265.574
402.0000	-0.505329	0.000763169	0.091305	265.335
401.5000	-0.62078	0.000761611	0.0907131	265.068
401.0000	-0.626707	0.000760384	0.0899851	264.827
400.5000	-0.561925	0.000769727	0.089378	264.609
400.0000	-0.574506	0.000779356	0.0888182	264.426
399.5000	-0.60763	0.000775309	0.0887672	264.253
399.0000	-0.72525	0.000779346	0.088791	264.119
398.5000	-0.787356	0.000781712	0.0885706	263.997
398.0000	-0.638258	0.000778523	0.0881964	263.887
397.5000	-0.628428	0.000770557	0.0878391	263.803
397.0000	-0.408638	0.000766159	0.0879625	263.756
396.5000	-0.379165	0.000768556	0.0878981	263.741
396.0000	-0.481885	0.000771335	0.0877997	263.741
395.5000	-0.460662	0.000760174	0.087441	263.774
395.0000	-0.457212	0.000768974	0.0872337	263.836
394.5000	-0.313842	0.000767919	0.0873493	263.94
394.0000	-0.330103	0.000764833	0.087458	264.065
393.5000	-0.305507	0.000773187	0.0871456	264.195
393.0000	-0.162055	0.000754012	0.0866567	264.337
392.5000	-0.0687599	0.000769205	0.0863177	264.467
392.0000	-0.0654537	0.000762124	0.0861736	264.58
391.5000	-0.116637	0.000765514	0.0862605	264.678
391.0000	-0.133737	0.000767196	0.0862886	264.773
390.5000	-0.0319716	0.000763902	0.0861217	264.862
390.0000	-0.197517	0.000773306	0.0859175	264.938
389.5000	-0.161454	0.000788883	0.0862079	265.018
389.0000	-0.230313	0.00078277	0.0866482	265.09
388.5000	-0.28481	0.000788649	0.0867557	265.149
388.0000	-0.250269	0.000792134	0.0869099	265.219
387.5000	-0.243836	0.000796842	0.0873831	265.285
387.0000	-0.372397	0.000798264	0.0881295	265.331
386.5000	-0.466058	0.000796789	0.0888002	265.381
386.0000	-0.50962	0.000796093	0.0893928	265.409
385.5000	-0.542184	0.000787819	0.0900141	265.434
385.0000	-0.61088	0.000791859	0.0908515	265.472
384.5000	-0.738665	0.000790021	0.0916393	265.504
384.0000	-0.876848	0.000796361	0.0926291	265.542
383.5000	-0.789514	0.000801829	0.0934611	265.589
383.0000	-0.66754	0.000805503	0.0941265	265.634
382.5000	-0.630022	0.000811883	0.094825	265.675
382.0000	-0.595744	0.000820767	0.0959553	265.715
381.5000	-0.524562	0.000816362	0.0973037	265.763
381.0000	-0.660465	0.000822966	0.0984384	265.821
380.5000	-0.609165	0.000827769	0.0992174	265.864
380.0000	-0.53966	0.000826785	0.100338	265.916
379.5000	-0.600961	0.000835779	0.101374	265.958
379.0000	-0.581674	0.000823678	0.10215	266.008
378.5000	-0.541309	0.000823056	0.102622	266.06
378.0000	-0.467891	0.000821046	0.103129	266.109
377.5000	-0.432657	0.000816436	0.103828	266.161
377.0000	-0.343231	0.000827963	0.104497	266.211
376.5000	-0.19577	0.000834537	0.105129	266.235
376.0000	-0.234888	0.000824878	0.10585	266.26
375.5000	-0.239702	0.000820725	0.106244	266.274
375.0000	-0.212622	0.000821026	0.106692	266.284
374.5000	-0.35172	0.000819371	0.1071	266.283
374.0000	-0.424465	0.000808869	0.10748	266.276
373.5000	-0.449611	0.000798241	0.107782	266.27
373.0000	-0.343221	0.000789087	0.107766	266.258
372.5000	-0.164308	0.00079418	0.107958	266.255
372.0000	-0.131527	0.000798273	0.108155	266.247
371.5000	-0.120171	0.000788778	0.10842	266.253
371.0000	-0.112876	0.000780895	0.108916	266.264
370.5000	-0.0291995	0.000789256	0.10944	266.272
370.0000	-0.0399857	0.000790369	0.109718	266.274
369.5000	-0.131808	0.00078526	0.109987	266.28
369.0000	-0.0597967	0.000788391	0.110464	266.307
368.5000	-0.125565	0.000788901	0.111016	266.334
368.0000	-0.172095	0.000785612	0.111496	266.379
367.5000	-0.216766	0.00079311	0.112142	266.434
367.0000	-0.0996812	0.000784279	0.112871	266.48
366.5000	-0.13615	0.000793038	0.113478	266.544
366.0000	-0.238833	0.000786675	0.114177	266.627
365.5000	-0.204922	0.000794312	0.114866	266.711
365.0000	-0.295412	0.000807006	0.115356	266.788
364.5000	-0.343709	0.000794908	0.116027	266.862
364.0000	-0.401519	0.000775971	0.116567	266.941
363.5000	-0.408707	0.000783204	0.11733	267.012
363.0000	-0.405645	0.000789829	0.118047	267.084
362.5000	-0.506261	0.000796266	0.118625	267.156
362.0000	-0.322402	0.000788589	0.119387	267.246
361.5000	-0.292617	0.000804444	0.120332	267.337
361.0000	-0.365943	0.000797549	0.121031	267.409
360.5000	-0.511862	0.000797857	0.121561	267.485
360.0000	-0.441961	0.000794438	0.121979	267.543
359.5000	-0.287178	0.000789898	0.122371	267.606
359.0000	-0.261772	0.000781633	0.122545	267.67
358.5000	-0.281556	0.000784404	0.122614	267.735
358.0000	-0.243427	0.00077718	0.122719	267.8
357.5000	-0.186991	0.000785593	0.122681	267.854
357.0000	-0.130081	0.000765032	0.122924	267.91
356.5000	-0.0145997	0.000775266	0.123383	267.958
356.0000	0.122496	0.000768289	0.123634	268.018
355.5000	0.10623	0.000769132	0.123839	268.077
355.0000	0.233588	0.000757332	0.123893	268.132
354.5000	0.187231	0.000758149	0.124001	268.194
354.0000	0.198561	0.000741271	0.124231	268.256
353.5000	0.177167	0.000739835	0.124372	268.311
353.0000	0.0417223	0.000731801	0.124398	268.363
352.5000	0.109181	0.000745077	0.124688	268.436
352.0000	0.382867	0.000739282	0.124913	268.502
351.5000	0.35121	0.000739519	0.125304	268.579
351.0000	0.372548	0.000743565	0.125842	268.64
350.5000	0.330021	0.000726084	0.126556	268.706
350.0000	0.371476	0.000731475	0.127384	268.779
349.5000	0.339052	0.000722531	0.128218	268.845
349.0000	0.347858	0.000716942	0.129234	268.919
348.5000	0.418022	0.000730779	0.130317	268.992
348.0000	0.314159	0.00072331	0.13109	269.06
347.5000	0.153188	0.000731327	0.132027	269.118
347.0000	0.189915	0.000731273	0.133118	269.185
346.5000	0.0886665	0.000730842	0.134093	269.26
346.0000	0.118126	0.000726572	0.134913	269.328
345.5000	0.0898554	0.00072197	0.135723	269.381
345.0000	0.0808042	0.000720882	0.13674	269.448
344.5000	0.153895	0.000706325	0.13787	269.524
344.0000	0.121893	0.000691117	0.138935	269.579
343.5000	-0.0529008	0.000679835	0.139741	269.634
343.0000	-0.119569	0.000662676	0.140399	269.686
342.5000	0.0627929	0.000679197	0.140994	269.745
342.0000	0.043991	0.00068248	0.141635	269.81
341.5000	0.148274	0.000684995	0.142406	269.879
341.0000	0.151235	0.000690194	0.143323	269.942
340.5000	0.107037	0.000677303	0.143818	269.992
340.0000	0.154627	0.000671688	0.144515	270.063
339.5000	0.261446	0.000667057	0.144874	270.127
339.0000	0.308171	0.000653632	0.145583	270.198
338.5000	0.336694	0.000651946	0.146416	270.273
338.0000	0.364574	0.000657502	0.14709	270.339
337.5000	0.453241	0.000661559	0.147839	270.419
337.0000	0.434101	0.00065147	0.148667	270.515
336.5000	0.441924	0.000650367	0.149569	270.598
336.0000	0.580815	0.000654363	0.150191	270.67
335.5000	0.798319	0.000672291	0.151007	270.757
335.0000	0.699701	0.000660358	0.151749	270.837
334.5000	0.758091	0.000644675	0.152646	270.94
334.0000	0.730854	0.000622182	0.153593	271.036
333.5000	0.774657	0.000609313	0.154908	271.135
333.0000	0.708121	0.000604477	0.155865	271.232
332.5000	0.677477	0.000589295	0.156544	271.33
332.0000	0.769678	0.000593243	0.157265	271.426
331.5000	0.800003	0.000589193	0.15817	271.518
331.0000	0.806132	0.000591605	0.159384	271.634
330.5000	0.756703	0.00059367	0.160329	271.746
330.0000	0.667207	0.000582771	0.161303	271.853
329.5000	0.611158	0.000579381	0.162468	271.977
329.0000	0.504938	0.00055448	0.163344	272.086
328.5000	0.518419	0.000553596	0.164297	272.19
328.0000	0.504079	0.000544919	0.165089	272.289
327.5000	0.363337	0.000522038	0.166104	272.39
327.0000	0.293182	0.000499828	0.167369	272.49
326.5000	0.441648	0.000505289	0.168899	272.612
326.0000	0.329898	0.000514474	0.170506	272.737
325.5000	0.193099	0.000511748	0.171956	272.868
325.0000	0.059601	0.000506398	0.173042	272.998
324.5000	0.229959	0.000496706	0.174409	273.138
324.0000	0.289146	0.000481122	0.176033	273.285
323.5000	0.211015	0.000472542	0.177931	273.447
323.0000	0.123056	0.000452345	0.17955	273.607
322.5000	-0.0728129	0.000438197	0.180975	273.754
322.0000	0.0448234	0.000437646	0.182383	273.912
321.5000	0.13097	0.000431888	0.184085	274.075
321.0000	0.318698	0.000423235	0.185844	274.24
320.5000	0.293928	0.000423267	0.187639	274.402
320.0000	0.199814	0.000419989	0.189137	274.552
319.5000	0.0579673	0.000413577	0.190761	274.713
319.0000	0.179829	0.000434557	0.192397	274.899
318.5000	0.167962	0.0004167	0.193975	275.089
318.0000	0.24249	0.000411696	0.195157	275.239
317.5000	0.49846	0.00039932	0.19655	275.388
317.0000	0.560436	0.00039046	0.198281	275.542
316.5000	0.585067	0.000385948	0.200111	275.69
316.0000	0.487072	0.000373586	0.202129	275.859
315.5000	0.503482	0.000366202	0.20374	276.024
315.0000	0.613718	0.000366626	0.205478	276.211
314.5000	0.475255	0.000366765	0.207214	276.398
314.0000	0.722166	0.000373253	0.209149	276.594
313.5000	0.701148	0.000353752	0.211097	276.787
313.0000	0.870771	0.000345728	0.213069	276.993
312.5000	0.81538	0.000332303	0.21497	277.204
312.0000	0.905933	0.000322218	0.217183	277.425
311.5000	1.09436	0.000310422	0.219353	277.653
311.0000	1.20268	0.000303963	0.221836	277.888
310.5000	1.17833	0.000300558	0.22429	278.16
310.0000	1.03549	0.000305692	0.226793	278.416
309.5000	0.954443	0.000294917	0.229656	278.702
309.0000	0.944308	0.00027352	0.232785	279.019
308.5000	0.955426	0.000258843	0.235776	279.352
308.0000	1.14987	0.00027204	0.238665	279.671
307.5000	0.991431	0.000260693	0.242204	280.044
307.0000	1.12395	0.000259364	0.245817	280.403
306.5000	1.21577	0.000246408	0.24978	280.796
306.0000	1.46866	0.000227078	0.253857	281.186
305.5000	1.40234	0.000225132	0.258202	281.629
305.0000	1.48208	0.000215844	0.26261	282.067
304.5000	1.23555	0.000215858	0.267927	282.575
304.0000	1.23576	0.000215267	0.273633	283.111
303.5000	1.14866	0.000217702	0.279553	283.669
303.0000	1.18408	0.000208174	0.285881	284.287
302.5000	1.22964	0.00019811	0.292633	284.951
302.0000	1.31413	0.000191665	0.299725	285.628
301.5000	1.31394	0.000175556	0.30715	286.335
301.0000	1.41406	0.000169264	0.314615	287.067
300.5000	1.20625	0.000157531	0.321428	287.739
300.0000	1.12872	0.00014836	0.329983	288.549
299.5000	1.20548	0.000136518	0.338198	289.341
299.0000	1.198	0.000141324	0.346259	290.134
298.5000	1.16181	0.00013035	0.354602	290.966
298.0000	1.21397	0.000123443	0.362567	291.754
297.5000	1.16666	0.000118833	0.37095	292.577
297.0000	1.16551	8.98534E-005	0.378806	293.307
296.5000	1.20102	9.70697E-005	0.386209	294.015
296.0000	1.36495	9.43626E-005	0.393487	294.718
295.5000	1.51362	9.32911E-005	0.400725	295.39
295.0000	1.67751	0.000108843	0.407227	295.978
294.5000	1.49451	0.000106569	0.413643	296.57
294.0000	1.46264	0.00011795	0.419861	297.187
293.5000	1.63968	0.000122544	0.424755	297.691
293.0000	1.71164	0.000132481	0.430082	298.23
292.5000	1.84898	0.000141225	0.435208	298.772
292.0000	2.11279	0.000167674	0.439529	299.249
291.5000	2.09822	0.000185907	0.443632	299.693
291.0000	2.13876	0.000197895	0.447502	300.113
290.5000	2.21702	0.000210506	0.451589	300.548
290.0000	2.25485	0.000240875	0.455594	300.956
289.5000	2.17715	0.000239016	0.458838	301.32
289.0000	2.01952	0.000260601	0.462043	301.686
288.5000	1.9723	0.000292951	0.465508	302.09
288.0000	1.86525	0.000298146	0.468908	302.492
287.5000	1.86131	0.000315002	0.47243	302.917
287.0000	1.71529	0.000316823	0.475818	303.37
286.5000	1.49526	0.000327203	0.47875	303.799
286.0000	1.62664	0.000336197	0.481692	304.194
285.5000	1.57962	0.000358831	0.485162	304.59
285.0000	1.24593	0.000368482	0.488743	305.002
284.5000	1.28106	0.000385356	0.491983	305.382
284.0000	1.37882	0.000393976	0.495399	305.78
283.5000	1.02804	0.000398443	0.499293	306.212
283.0000	0.928362	0.000394858	0.503014	306.631
282.5000	1.02139	0.000432907	0.507066	307.082
282.0000	1.01911	0.000440266	0.51108	307.561
281.5000	0.89106	0.00044187	0.51513	308.047
281.0000	0.855027	0.000452865	0.519484	308.544
280.5000	0.929481	0.000466733	0.524197	309.101
280.0000	0.8822	0.000490056	0.529107	309.675
279.5000	0.901763	0.000518436	0.53424	310.283
279.0000	0.584403	0.00053706	0.539389	310.901
278.5000	0.486858	0.000548338	0.545286	311.589
278.0000	0.483085	0.000560619	0.552376	312.359
277.5000	0.455397	0.000578106	0.559265	313.107
277.0000	0.372665	0.000584389	0.566637	313.936
276.5000	0.549076	0.000615973	0.574411	314.821
276.0000	0.503139	0.000646192	0.582018	315.676
275.5000	0.470342	0.000662271	0.591083	316.664
275.0000	0.558274	0.00068042	0.600798	317.726
274.5000	0.724985	0.00069955	0.611021	318.864
274.0000	0.644394	0.000725125	0.622179	320.134
273.5000	0.670398	0.000748764	0.63325	321.358
273.0000	0.486938	0.000776648	0.645629	322.721
272.5000	0.736918	0.000811622	0.658586	324.159
272.0000	0.793976	0.000843787	0.672278	325.696
271.5000	0.978742	0.000854108	0.687677	327.424
271.0000	0.937145	0.000874292	0.703387	329.158
270.5000	1.33212	0.000889915	0.720079	330.985
270.0000	1.60048	0.000919917	0.737369	332.92
269.5000	1.70015	0.000943021	0.755552	334.994
269.0000	1.52315	0.000971793	0.773905	337.08
268.5000	1.42788	0.000976926	0.794542	339.418
268.0000	1.41178	0.000995311	0.816377	341.89
267.5000	1.34653	0.00103279	0.839285	344.502
267.0000	1.11932	0.00105241	0.864095	347.382
266.5000	0.771274	0.00106593	0.88988	350.412
266.0000	1.14472	0.0010679	0.914483	353.269
265.5000	0.813192	0.0010895	0.941342	356.376
265.0000	0.919903	0.00111529	0.969874	359.746
264.5000	0.817137	0.00115179	0.997182	363.024
264.0000	0.731711	0.0011463	1.0247	366.353
263.5000	0.482936	0.00114858	1.05378	369.87
263.0000	0.216395	0.0011236	1.07996	373.065
262.5000	-0.291876	0.0011452	1.10835	376.604
262.0000	-0.532366	0.00112347	1.13488	379.987
261.5000	-0.189923	0.0011166	1.16128	383.35
261.0000	-0.331791	0.0011146	1.1865	386.537
260.5000	-0.697777	0.00112835	1.21249	389.871
260.0000	-0.783088	0.00114641	1.23793	393.183
259.5000	-0.70963	0.00117881	1.26288	396.478
259.0000	-0.738989	0.00114023	1.2874	399.776
258.5000	-1.11446	0.00114124	1.3121	403.08
258.0000	-1.29084	0.00114566	1.33666	406.391
257.5000	-1.36898	0.00114508	1.35977	409.53
257.0000	-1.01937	0.00113187	1.3841	412.861
256.5000	-0.651158	0.00113184	1.40729	416.051
256.0000	-0.718071	0.00112468	1.4321	419.462
255.5000	-1.22568	0.00114769	1.45732	422.932
255.0000	-1.42116	0.00120799	1.48269	426.459
254.5000	-1.70927	0.00121681	1.50686	429.844
254.0000	-2.16585	0.00112906	1.53122	433.268
253.5000	-2.15465	0.00113282	1.55851	437.064
253.0000	-2.59899	0.00115785	1.58283	440.502
252.5000	-2.69009	0.00110147	1.61773	445.536
252.0000	-2.51199	0.00106679	1.64591	449.623
251.5000	-2.53981	0.00100173	1.66995	453.118
251.0000	-2.93021	0.00093304	1.69379	456.558
250.5000	-3.06651	0.000979901	1.71653	459.897
250.0000	-2.98028	0.00099153	1.73709	462.962
249.5000	-2.76127	0.000931134	1.75669	465.918
249.0000	-2.78999	0.000878175	1.77663	468.94
248.5000	-3.49718	0.000834231	1.79511	471.73
248.0000	-4.92653	0.000793983	1.81362	474.558
247.5000	-3.96982	0.00077307	1.83039	477.163
247.0000	-4.79829	0.000680003	1.84738	479.84
246.5000	-5.22028	0.000630065	1.86408	482.46
246.0000	-4.69805	0.000585775	1.88079	485.068
245.5000	-4.08718	0.000511044	1.89775	487.796
245.0000	-5.01767	0.00037516	1.91471	490.537
244.5000	-4.83671	0.000274838	1.93209	493.339
244.0000	-6.60152	0.000220296	1.94983	496.238
243.5000	-7.50031	0.000261276	1.96728	499.119
243.0000	-8.24394	0.000142841	1.98519	502.126
242.5000	-9.14396	0.000100422	2.006	505.644
242.0000	-10.3662	2.93246E-005	2.02528	508.91
241.5000	-10.969	-0.000110578	2.04795	512.763
241.0000	-12.3598	-5.75582E-006	2.07001	516.523
240.5000	-12.5734	7.82465E-006	2.09585	521.016
240.0000	-12.7589	-6.3991E-005	2.12122	525.436
239.5000	-12.7802	-0.000109535	2.15311	531.008
239.0000	-13.384	-0.000192918	2.18305	536.234
238.5000	-13.4323	-0.000153918	2.21688	542.185
238.0000	-13.5153	-0.000229441	2.255	548.988
237.5000	-12.3354	-0.000200415	2.29181	555.632
237.0000	-13.9461	-0.000401807	2.3332	563.16
236.5000	-14.7829	-0.000459461	2.37721	571.237
236.0000	-16.6136	-0.000541946	2.42143	579.417
235.5000	-16.0132	-0.000621452	2.47511	589.509
235.0000	-16.2284	-0.00063249	2.5133	596.774
234.5000	-12.8664	-0.000552052	2.55554	604.873
234.0000	-14.5523	-0.000522243	2.60187	613.839
233.5000	-13.4591	-0.00041475	2.65536	624.288
233.0000	-11.152	-0.000286086	2.7137	635.841
232.5000	-13.1055	-0.000535572	2.77072	647.353
232.0000	-11.8622	-0.000495974	2.83842	661.285
231.5000	-10.4151	-0.000404621	2.89448	673.067
231.0000	-12.6169	-0.000660635	2.95714	686.474
230.5000	-11.663	-0.000614861	3.01941	700.131
230.0000	-9.23809	-0.000434696	3.07773	713.253
229.5000	-11.2448	-0.000354964	3.13802	727.086
229.0000	-11.3699	-0.000175556	3.19641	740.821
228.5000	-7.62617	1.18739E-005	3.25239	754.273
228.0000	-6.79319	0.000111645	3.30302	766.739
227.5000	-5.39426	0.000369055	3.35281	779.437
227.0000	-4.54585	0.000587549	3.39917	791.607
226.5000	-3.59022	0.000467828	3.44365	803.668
226.0000	-7.12508	0.000405214	3.48013	813.955
225.5000	-1.65693	0.000607967	3.51457	824.088
225.0000	1.14671	0.000471373	3.54424	833.393
224.5000	-0.187282	0.00059832	3.5695	841.861
224.0000	2.62965	0.000617427	3.59045	849.406
223.5000	2.1712	0.000241398	3.60735	856.014
223.0000	2.86344	0.000281932	3.62041	861.743
222.5000	5.35066	0.000409155	3.63067	867.509
222.0000	5.96814	0.00042899	3.63563	871.795
221.5000	8.42448	0.000307795	3.63658	875.331
221.0000	12.3441	4.69436E-005	3.63466	877.727
220.5000	9.3527	-0.000139909	3.63043	879.611
220.0000	8.01937	-0.000353559	3.62404	881.159

##### Extended Information
[Comments]
Sample name	JS187+JS190_5E-5_H2O_46-54
Comment
User
Division
Company	Labo systeme complexes hors equilibre

[Detailed Information]
Creation date	1/23/2024 12:16 PM

Data array type	Linear data array * 4
Horizontal axis	Wavelength [nm]
Vertical axis(1)	CD [mdeg]
Vertical axis(2)	LD [dOD]
Vertical axis(3)	Abs
Vertical axis(4)	HT [V]
Start	700 nm
End	220 nm
Data interval	0.5 nm
Data points	961     

[Measurement Information]
Instrument name	CD Jasco
Model name	J-1500
Serial No.	A005261638

Detector	PM-539
Detector S/N	A0052PM539
  Lock-in amp.	X mode
  HT volt	Auto

Detector	EXPML-535
Detector S/N	A0001
  Lock-in amp.	X mode
  HT volt	Auto

Measurement date	1/23/2024 12:16 PM

Overload detect	1
Photometric mode	CD, LD, Abs, HT
Measure range	700 - 220 nm
Data pitch	0.5 nm
CD scale	200 mdeg/1.0 dOD
FL scale	200 mdeg/1.0 dOD
D.I.T.	1 sec
Bandwidth	1.00 nm
Start mode	Immediately
Scanning speed	500 nm/min
Baseline correction	Baseline
Shutter control	Auto


