TITLE	JS187+JS190_5E-5_H2O_50-50
DATA TYPE	
ORIGIN	JASCO
OWNER	
DATE	24/01/23
TIME	10:38:36
SPECTROMETER/DATA SYSTEM	
LOCALE	1033
RESOLUTION	
DELTAX	-0.5
XUNITS	NANOMETERS
YUNITS	CD [mdeg]
Y2UNITS	LD [dOD]
Y3UNITS	ABSORBANCE
Y4UNITS	HT [V]
FIRSTX	  700.0000
LASTX	  220.0000
NPOINTS	     961
FIRSTY	     0.85765
MAXY	     3.39478
MINY	   -11.42637
XYDATA
700.0000	0.857653	-0.000264883	-0.0527552	299.333
699.5000	0.646735	-0.000277413	-0.0538458	299.028
699.0000	0.679963	-0.000288989	-0.0549754	298.675
698.5000	0.799949	-0.000274646	-0.0557181	298.274
698.0000	0.930473	-0.000302562	-0.0569538	297.829
697.5000	0.755638	-0.000313706	-0.0585985	297.37
697.0000	0.605459	-0.000287417	-0.0605462	296.865
696.5000	0.804109	-0.000271945	-0.0617564	296.347
696.0000	0.714829	-0.000266244	-0.062104	295.795
695.5000	0.628217	-0.000273901	-0.0622362	295.265
695.0000	0.55076	-0.000291892	-0.061813	294.787
694.5000	0.385871	-0.00030696	-0.0613329	294.336
694.0000	0.542926	-0.000301191	-0.0597435	293.912
693.5000	0.547245	-0.000305828	-0.0577188	293.533
693.0000	0.507586	-0.000304994	-0.0549794	293.219
692.5000	0.505345	-0.000332109	-0.0522495	292.928
692.0000	0.496339	-0.000308979	-0.0495499	292.673
691.5000	0.649507	-0.000327171	-0.046559	292.455
691.0000	0.63892	-0.000336907	-0.0438822	292.226
690.5000	0.659313	-0.000328288	-0.0418237	292.043
690.0000	0.426973	-0.000327194	-0.0401605	291.87
689.5000	0.255409	-0.000323775	-0.0383245	291.737
689.0000	0.247112	-0.00033603	-0.0355113	291.677
688.5000	0.250779	-0.000349659	-0.0323737	291.725
688.0000	0.137184	-0.0003243	-0.0284562	291.873
687.5000	0.260516	-0.00029901	-0.0242652	292.094
687.0000	0.262644	-0.000283602	-0.0208206	292.324
686.5000	0.308387	-0.000286184	-0.0181944	292.566
686.0000	0.283904	-0.000301068	-0.0170828	292.799
685.5000	0.308122	-0.000307436	-0.0169795	293.041
685.0000	0.234843	-0.000303521	-0.0173433	293.273
684.5000	-0.107605	-0.000321114	-0.0182051	293.503
684.0000	0.084898	-0.000318239	-0.0195486	293.725
683.5000	0.171465	-0.000317633	-0.0205668	293.939
683.0000	0.160623	-0.000309107	-0.0214022	294.183
682.5000	-0.0103547	-0.000315594	-0.0216485	294.438
682.0000	0.242336	-0.000330468	-0.0219462	294.725
681.5000	0.237402	-0.000340821	-0.0218261	295.005
681.0000	0.361992	-0.000337095	-0.0217863	295.289
680.5000	0.58203	-0.00034122	-0.0222067	295.507
680.0000	0.597405	-0.000352641	-0.0241075	295.655
679.5000	0.456322	-0.000390773	-0.0266634	295.735
679.0000	0.411197	-0.000392907	-0.0302394	295.765
678.5000	0.537922	-0.000399566	-0.0325807	295.777
678.0000	0.647186	-0.000390633	-0.0346947	295.772
677.5000	0.709657	-0.000366396	-0.0359363	295.758
677.0000	0.746992	-0.000353944	-0.0365569	295.731
676.5000	1.10779	-0.000340514	-0.0364597	295.701
676.0000	1.0383	-0.000347214	-0.0361977	295.683
675.5000	0.941219	-0.000345461	-0.0358135	295.676
675.0000	0.91986	-0.000356572	-0.0351634	295.68
674.5000	0.722879	-0.000359612	-0.0342455	295.679
674.0000	0.791545	-0.000333933	-0.0331962	295.692
673.5000	0.767807	-0.000338379	-0.0320198	295.717
673.0000	0.711893	-0.000319148	-0.0317759	295.749
672.5000	0.552824	-0.000327497	-0.0315449	295.79
672.0000	0.823984	-0.000305905	-0.0309534	295.841
671.5000	0.858646	-0.000310054	-0.0299162	295.892
671.0000	0.673168	-0.00030724	-0.0289651	295.938
670.5000	0.885653	-0.000295799	-0.027742	295.992
670.0000	0.628881	-0.000289814	-0.0267439	296.048
669.5000	0.704584	-0.000287501	-0.0260974	296.123
669.0000	0.753804	-0.000307039	-0.0253759	296.204
668.5000	0.841664	-0.000339126	-0.024753	296.279
668.0000	0.760016	-0.00036864	-0.0242437	296.376
667.5000	0.800224	-0.000370843	-0.0238563	296.478
667.0000	0.76934	-0.000376043	-0.0236229	296.592
666.5000	0.936286	-0.000373413	-0.0233304	296.711
666.0000	0.998954	-0.000357499	-0.0238217	296.831
665.5000	1.06695	-0.000376817	-0.0238856	296.951
665.0000	1.06841	-0.000379935	-0.0230294	297.083
664.5000	1.189	-0.000368411	-0.0219841	297.204
664.0000	1.02034	-0.000369366	-0.0218453	297.304
663.5000	0.984997	-0.000373568	-0.0226544	297.407
663.0000	1.28699	-0.000372368	-0.0226627	297.507
662.5000	1.1764	-0.000357404	-0.0228104	297.597
662.0000	1.2714	-0.000375243	-0.0230399	297.676
661.5000	1.05731	-0.000395932	-0.0228563	297.731
661.0000	0.934961	-0.000382867	-0.0229949	297.782
660.5000	0.871029	-0.000348059	-0.0234021	297.816
660.0000	1.02273	-0.00034349	-0.0235058	297.844
659.5000	0.942418	-0.00033348	-0.024156	297.853
659.0000	0.870628	-0.00034023	-0.0247109	297.834
658.5000	0.795549	-0.00035016	-0.0251437	297.794
658.0000	0.763108	-0.000352668	-0.025095	297.748
657.5000	0.732643	-0.000343793	-0.0256746	297.677
657.0000	0.575927	-0.000341638	-0.0254247	297.581
656.5000	0.613885	-0.000333665	-0.0264167	297.453
656.0000	0.82509	-0.000324256	-0.0272119	297.318
655.5000	0.860635	-0.000340365	-0.0265942	297.167
655.0000	0.727489	-0.000324772	-0.0265501	297.013
654.5000	0.814218	-0.000333729	-0.0269656	296.865
654.0000	0.716617	-0.000328824	-0.026539	296.719
653.5000	0.782474	-0.000315272	-0.0254117	296.581
653.0000	1.01631	-0.000292648	-0.0238341	296.465
652.5000	1.2159	-0.000283891	-0.0222698	296.375
652.0000	1.43984	-0.000270857	-0.0204718	296.316
651.5000	1.31173	-0.000253642	-0.0181404	296.289
651.0000	1.17588	-0.000262516	-0.0152612	296.297
650.5000	1.39803	-0.000238574	-0.0130676	296.336
650.0000	1.61022	-0.000241309	-0.010648	296.382
649.5000	1.5695	-0.000252924	-0.00861255	296.466
649.0000	1.60672	-0.000236444	-0.00638546	296.568
648.5000	1.76972	-0.00026545	-0.00491361	296.708
648.0000	1.77536	-0.000273537	-0.00309049	296.871
647.5000	1.60299	-0.000269512	-0.0014692	297.041
647.0000	1.45868	-0.000278235	-0.000428677	297.228
646.5000	1.51387	-0.000299133	0.00036902	297.414
646.0000	1.58974	-0.000299052	0.00194446	297.591
645.5000	1.51243	-0.000294754	0.00269653	297.763
645.0000	1.49163	-0.000317238	0.00214348	297.907
644.5000	1.39161	-0.000312549	0.00187622	298.031
644.0000	1.28338	-0.000326355	0.00169799	298.126
643.5000	1.25526	-0.00033139	0.00111728	298.196
643.0000	1.45738	-0.000338774	0.000461282	298.23
642.5000	1.75693	-0.000334635	3.20515E-005	298.257
642.0000	1.67359	-0.00033556	-0.000349469	298.252
641.5000	1.62907	-0.000332162	-0.000603441	298.251
641.0000	1.78383	-0.000332887	-0.000728753	298.217
640.5000	1.51771	-0.000334477	-0.000428477	298.171
640.0000	1.53305	-0.000335763	-6.79555E-006	298.104
639.5000	1.68815	-0.000340152	0.000736842	298.026
639.0000	1.57495	-0.000332902	0.00137049	297.952
638.5000	1.72009	-0.000335454	0.00244659	297.868
638.0000	1.71943	-0.000313527	0.00284117	297.773
637.5000	1.6316	-0.000321983	0.00306094	297.678
637.0000	1.76863	-0.000307895	0.00436159	297.602
636.5000	1.83691	-0.000319736	0.00535155	297.525
636.0000	1.81731	-0.000340745	0.00578934	297.462
635.5000	1.97547	-0.000341227	0.00634697	297.403
635.0000	1.78692	-0.000328657	0.00736085	297.35
634.5000	1.60837	-0.000339055	0.00822196	297.297
634.0000	1.41881	-0.00033023	0.00886798	297.235
633.5000	1.44224	-0.000328713	0.00920151	297.183
633.0000	1.35758	-0.000329218	0.0100433	297.131
632.5000	1.19434	-0.000332942	0.0102487	297.081
632.0000	1.41719	-0.000335987	0.0105342	297.038
631.5000	1.28733	-0.000318521	0.0111331	296.998
631.0000	1.52921	-0.000303362	0.0117134	296.96
630.5000	1.39326	-0.000289578	0.0122406	296.919
630.0000	1.33689	-0.000301694	0.0128216	296.876
629.5000	1.61968	-0.000298666	0.0135289	296.83
629.0000	1.70887	-0.000269262	0.0138648	296.774
628.5000	1.50317	-0.000283736	0.0139568	296.712
628.0000	1.41206	-0.000273335	0.014274	296.646
627.5000	1.23202	-0.000263142	0.0148673	296.574
627.0000	1.09106	-0.000265926	0.0149231	296.499
626.5000	1.06812	-0.000268412	0.0147995	296.437
626.0000	0.823598	-0.00027478	0.0147864	296.378
625.5000	0.851732	-0.000270054	0.0155199	296.329
625.0000	0.703458	-0.000295369	0.0164211	296.291
624.5000	0.77276	-0.00029811	0.0174158	296.263
624.0000	0.683351	-0.000284545	0.0182984	296.245
623.5000	0.461014	-0.000272665	0.0192087	296.235
623.0000	0.204422	-0.000287742	0.0200118	296.23
622.5000	0.232715	-0.000300054	0.0210053	296.24
622.0000	0.276628	-0.000299102	0.0216924	296.258
621.5000	0.400876	-0.000291249	0.0224658	296.29
621.0000	0.267491	-0.000294768	0.0233604	296.338
620.5000	0.142653	-0.000324125	0.024008	296.398
620.0000	0.258761	-0.00032437	0.0246132	296.478
619.5000	0.333685	-0.00032544	0.0255166	296.576
619.0000	0.420073	-0.000344664	0.0269167	296.694
618.5000	0.576727	-0.00034898	0.0286758	296.822
618.0000	0.465782	-0.000350824	0.030443	296.952
617.5000	0.728788	-0.000347878	0.0311133	297.081
617.0000	0.701614	-0.000319695	0.0314727	297.213
616.5000	0.8284	-0.000325162	0.0318807	297.345
616.0000	1.05108	-0.000312456	0.0326779	297.471
615.5000	1.20541	-0.000331736	0.033223	297.61
615.0000	1.39035	-0.000325411	0.0337152	297.753
614.5000	1.5947	-0.000326055	0.0339867	297.892
614.0000	1.55831	-0.000328773	0.0342321	298.025
613.5000	1.5455	-0.000338813	0.0347029	298.158
613.0000	1.41153	-0.000331146	0.0350072	298.291
612.5000	1.31539	-0.000321793	0.0354399	298.426
612.0000	1.48186	-0.000293491	0.0360337	298.566
611.5000	1.38298	-0.000277032	0.0368083	298.692
611.0000	1.35638	-0.000276127	0.036972	298.811
610.5000	1.60849	-0.00028063	0.0370467	298.928
610.0000	1.83802	-0.000288503	0.0368854	299.029
609.5000	1.8181	-0.000280135	0.0376037	299.153
609.0000	1.77711	-0.000288618	0.0381922	299.261
608.5000	1.83212	-0.000284961	0.0391612	299.37
608.0000	2.02881	-0.000271427	0.0396041	299.46
607.5000	1.80884	-0.000276705	0.0396028	299.546
607.0000	2.037	-0.000258114	0.039905	299.626
606.5000	1.85665	-0.000268833	0.040412	299.713
606.0000	1.86787	-0.000259236	0.0415127	299.79
605.5000	1.81271	-0.000241272	0.0423241	299.869
605.0000	1.87464	-0.000247413	0.0436121	299.958
604.5000	1.98885	-0.000236698	0.0445819	300.039
604.0000	1.77059	-0.000244018	0.0458107	300.118
603.5000	1.73753	-0.00026249	0.0471241	300.188
603.0000	1.93528	-0.000273454	0.048038	300.26
602.5000	1.75695	-0.00026899	0.0494923	300.337
602.0000	1.88919	-0.000246563	0.0511021	300.412
601.5000	1.80285	-0.000250248	0.0525588	300.485
601.0000	1.78906	-0.000251227	0.0538358	300.541
600.5000	1.84447	-0.00023734	0.0557227	300.602
600.0000	1.739	-0.000211591	0.0573186	300.659
599.5000	1.61498	-0.000221796	0.0598209	300.717
599.0000	1.52515	-0.000212584	0.0618527	300.765
598.5000	1.50549	-0.000208807	0.0643085	300.796
598.0000	1.65216	-0.000188827	0.066274	300.819
597.5000	1.53314	-0.000204599	0.0683102	300.868
597.0000	1.47441	-0.000221405	0.0705221	300.903
596.5000	1.59571	-0.000215901	0.0728618	300.927
596.0000	1.72727	-0.000192742	0.0753496	300.959
595.5000	1.82691	-0.00020301	0.0775948	300.984
595.0000	1.74544	-0.000209718	0.0801131	300.996
594.5000	1.86185	-0.000204672	0.0828537	301.03
594.0000	1.93933	-0.000193725	0.0850464	301.063
593.5000	1.86771	-0.000194914	0.0878792	301.102
593.0000	1.93516	-0.000196538	0.0911073	301.147
592.5000	2.0146	-0.000193108	0.0939626	301.222
592.0000	2.09284	-0.000209974	0.0966891	301.308
591.5000	1.91479	-0.000228572	0.09903	301.384
591.0000	2.0074	-0.000222678	0.102084	301.485
590.5000	1.91521	-0.000233329	0.105084	301.621
590.0000	1.81382	-0.000257095	0.108298	301.768
589.5000	1.86026	-0.000246399	0.111739	301.922
589.0000	1.97862	-0.000237098	0.115318	302.094
588.5000	1.88178	-0.000227873	0.118832	302.284
588.0000	1.97963	-0.000236075	0.122784	302.502
587.5000	1.95066	-0.00022267	0.12704	302.763
587.0000	2.03197	-0.000224142	0.131359	303.068
586.5000	1.77657	-0.000211014	0.135532	303.367
586.0000	1.64288	-0.000216914	0.140244	303.669
585.5000	1.64432	-0.000224534	0.14471	303.999
585.0000	1.65841	-0.000212661	0.149422	304.368
584.5000	1.5916	-0.000195901	0.154004	304.726
584.0000	1.41979	-0.000185803	0.15936	305.135
583.5000	1.42272	-0.000157764	0.165017	305.57
583.0000	1.30212	-0.000131248	0.171382	306.052
582.5000	1.25972	-9.99473E-005	0.177662	306.566
582.0000	1.04105	-8.17814E-005	0.184105	307.093
581.5000	1.03594	-4.11921E-005	0.191093	307.677
581.0000	0.709276	-5.49484E-005	0.198535	308.281
580.5000	0.637336	-5.52866E-005	0.206116	308.905
580.0000	0.524425	-3.83277E-005	0.213803	309.56
579.5000	0.299821	-3.00391E-005	0.221582	310.239
579.0000	0.338987	-4.08824E-006	0.22965	310.936
578.5000	0.204419	1.53923E-005	0.238378	311.657
578.0000	0.292302	5.17997E-005	0.247261	312.425
577.5000	0.159433	6.86447E-005	0.256476	313.285
577.0000	0.0246302	7.67261E-005	0.266413	314.13
576.5000	0.0100738	8.20162E-005	0.277448	315.079
576.0000	0.149443	8.55409E-005	0.288188	316.007
575.5000	-0.0572787	7.67737E-005	0.29976	317.005
575.0000	-0.20854	9.77206E-005	0.310171	317.947
574.5000	-0.170614	0.000116384	0.321985	318.999
574.0000	-0.221068	9.37201E-005	0.334055	320.05
573.5000	-0.213438	0.000117605	0.346364	321.14
573.0000	-0.293891	0.000143751	0.359232	322.335
572.5000	-0.153781	0.000173617	0.371609	323.494
572.0000	-0.219892	0.000185535	0.385418	324.805
571.5000	-0.37714	0.000217901	0.399184	326.093
571.0000	-0.416647	0.000230489	0.414396	327.472
570.5000	-0.391622	0.000249095	0.4297	328.92
570.0000	-0.600639	0.000236982	0.44457	330.341
569.5000	-0.843371	0.0002572	0.460886	331.851
569.0000	-1.22528	0.000277815	0.477405	333.381
568.5000	-1.34761	0.000316437	0.492543	334.844
568.0000	-1.62009	0.000337551	0.508215	336.395
567.5000	-1.91362	0.000377471	0.524234	337.98
567.0000	-1.99556	0.000393298	0.540041	339.51
566.5000	-1.9822	0.000368491	0.555624	341.003
566.0000	-2.11326	0.000402694	0.570982	342.478
565.5000	-2.13291	0.000417905	0.585699	343.926
565.0000	-2.14508	0.000419646	0.600348	345.337
564.5000	-2.20692	0.00041444	0.614974	346.743
564.0000	-2.39916	0.000421301	0.628596	348.018
563.5000	-2.66236	0.000433765	0.641467	349.252
563.0000	-2.96478	0.000426182	0.654405	350.528
562.5000	-3.28638	0.000432003	0.666285	351.672
562.0000	-2.9714	0.000454042	0.677723	352.766
561.5000	-3.25415	0.000472631	0.689961	353.897
561.0000	-2.9289	0.000475398	0.701133	354.958
560.5000	-2.70452	0.000490398	0.711438	355.941
560.0000	-2.55119	0.000461337	0.721176	356.835
559.5000	-2.62348	0.00045205	0.730326	357.62
559.0000	-2.40419	0.000448298	0.738029	358.276
558.5000	-2.37269	0.00045223	0.744549	358.843
558.0000	-2.25872	0.000449156	0.749976	359.303
557.5000	-2.39011	0.000427179	0.755157	359.702
557.0000	-2.49673	0.000413962	0.75979	360.026
556.5000	-2.73003	0.000403398	0.76307	360.255
556.0000	-2.43121	0.000387088	0.765059	360.398
555.5000	-2.15156	0.000377193	0.766906	360.489
555.0000	-2.34819	0.000358443	0.768018	360.479
554.5000	-1.8082	0.000360558	0.76872	360.381
554.0000	-1.71283	0.000320674	0.768167	360.209
553.5000	-1.65895	0.000283063	0.766982	359.966
553.0000	-1.68548	0.000274294	0.765367	359.686
552.5000	-2.09982	0.00024693	0.763866	359.365
552.0000	-1.97152	0.000221561	0.761726	358.968
551.5000	-2.11485	0.000202587	0.759361	358.561
551.0000	-1.86763	0.000197581	0.756249	358.117
550.5000	-1.81025	0.000180635	0.752903	357.631
550.0000	-1.58512	0.000191234	0.749623	357.124
549.5000	-1.81471	0.000211254	0.74646	356.609
549.0000	-1.4432	0.000208691	0.742721	356.097
548.5000	-1.18984	0.000198219	0.739138	355.615
548.0000	-1.23018	0.000215158	0.736349	355.091
547.5000	-1.44316	0.000205228	0.733638	354.601
547.0000	-1.61941	0.000203303	0.731031	354.101
546.5000	-1.55534	0.000188288	0.728481	353.675
546.0000	-1.71305	0.000202049	0.7255	353.277
545.5000	-1.54567	0.000230098	0.723825	352.905
545.0000	-1.47337	0.000249803	0.722466	352.617
544.5000	-1.34111	0.000264366	0.721242	352.331
544.0000	-1.26859	0.000295935	0.720041	352.096
543.5000	-1.25609	0.000305218	0.71945	351.914
543.0000	-1.5109	0.000308713	0.719432	351.776
542.5000	-1.45311	0.000309694	0.720128	351.685
542.0000	-1.71699	0.000319794	0.720898	351.637
541.5000	-1.56394	0.000301369	0.722117	351.658
541.0000	-1.48793	0.000301584	0.723434	351.714
540.5000	-1.46395	0.000287189	0.725918	351.817
540.0000	-1.17577	0.000291784	0.728871	351.956
539.5000	-1.29052	0.000310779	0.73206	352.174
539.0000	-1.16835	0.000315429	0.7355	352.457
538.5000	-1.46037	0.000298254	0.739653	352.796
538.0000	-1.42526	0.000309557	0.744408	353.155
537.5000	-1.5317	0.000305511	0.749767	353.591
537.0000	-1.35745	0.000300537	0.755338	354.074
536.5000	-1.39046	0.000310327	0.76123	354.576
536.0000	-1.65654	0.000289265	0.767958	355.15
535.5000	-1.48913	0.00027288	0.774776	355.744
535.0000	-1.45268	0.000314072	0.782395	356.407
534.5000	-1.47979	0.000306529	0.789839	357.065
534.0000	-1.4692	0.000323494	0.797824	357.787
533.5000	-1.67082	0.00034215	0.80602	358.556
533.0000	-1.99208	0.000305976	0.813913	359.305
532.5000	-2.07796	0.000317254	0.822108	360.095
532.0000	-2.37381	0.000316433	0.830945	360.942
531.5000	-2.09342	0.000320846	0.840181	361.82
531.0000	-2.16611	0.000326807	0.850595	362.762
530.5000	-1.75555	0.000308293	0.860402	363.683
530.0000	-1.88506	0.000315501	0.870318	364.636
529.5000	-2.21435	0.000332997	0.880023	365.568
529.0000	-1.98997	0.000326467	0.88942	366.438
528.5000	-2.23184	0.00029735	0.898664	367.316
528.0000	-1.85648	0.000287193	0.907485	368.152
527.5000	-1.89698	0.000265158	0.916795	369.015
527.0000	-2.0794	0.000222648	0.926813	369.945
526.5000	-2.22932	0.00018823	0.935995	370.822
526.0000	-1.91054	0.000182086	0.945637	371.717
525.5000	-1.83741	0.000170511	0.955022	372.583
525.0000	-1.71543	0.000189466	0.964078	373.419
524.5000	-1.73194	0.000186642	0.972629	374.186
524.0000	-1.88606	0.000176862	0.98053	374.888
523.5000	-1.65742	0.000201722	0.988214	375.603
523.0000	-1.38056	0.000173371	0.995479	376.271
522.5000	-1.57605	0.00016453	1.00196	376.882
522.0000	-1.4177	0.000160658	1.00867	377.486
521.5000	-1.14403	0.000158529	1.01536	378.065
521.0000	-1.3338	0.000109828	1.02156	378.61
520.5000	-1.0555	0.000122907	1.0275	379.128
520.0000	-0.860125	0.000107174	1.03269	379.573
519.5000	-1.16459	8.54407E-005	1.03797	379.998
519.0000	-1.40648	9.12018E-005	1.04279	380.4
518.5000	-1.65275	0.000109516	1.04703	380.773
518.0000	-1.80581	0.00012307	1.05176	381.163
517.5000	-2.15808	0.000115951	1.05642	381.536
517.0000	-2.01378	3.75477E-005	1.06104	381.878
516.5000	-1.67359	4.72996E-005	1.06549	382.196
516.0000	-1.4904	5.25349E-005	1.06959	382.5
515.5000	-1.8575	4.60449E-005	1.07312	382.79
515.0000	-2.07538	1.16408E-005	1.07641	383.043
514.5000	-1.89657	-7.79042E-006	1.07967	383.307
514.0000	-1.32717	-6.79818E-006	1.08267	383.531
513.5000	-1.4015	-3.89742E-005	1.08595	383.777
513.0000	-0.986192	-6.55303E-005	1.08884	384.02
512.5000	-1.29165	-7.88367E-005	1.09227	384.296
512.0000	-1.10522	-7.49976E-005	1.09547	384.539
511.5000	-0.704261	-5.96737E-005	1.09828	384.78
511.0000	-0.194829	-5.59917E-005	1.10126	385.022
510.5000	-0.0727847	-9.93229E-005	1.10421	385.231
510.0000	0.427484	-8.67859E-005	1.10711	385.437
509.5000	0.557906	-7.03566E-005	1.10981	385.638
509.0000	0.621073	-5.95712E-005	1.11228	385.827
508.5000	0.994065	-6.52673E-005	1.11466	385.995
508.0000	1.02698	-8.15859E-005	1.11735	386.161
507.5000	1.46617	-8.87124E-005	1.12009	386.324
507.0000	1.32337	-0.000100174	1.12301	386.5
506.5000	1.02603	-8.67012E-005	1.12579	386.667
506.0000	0.767584	-9.22934E-005	1.12808	386.823
505.5000	0.268021	-9.74308E-005	1.13027	386.966
505.0000	0.456125	-8.98625E-005	1.1325	387.105
504.5000	0.396113	-0.000105366	1.13476	387.232
504.0000	1.01567	-0.000127713	1.13668	387.327
503.5000	0.986375	-0.000163869	1.13839	387.403
503.0000	0.754962	-0.00015421	1.14007	387.456
502.5000	0.999008	-0.000164549	1.14132	387.484
502.0000	1.13298	-0.000144567	1.14258	387.518
501.5000	0.933049	-0.00017486	1.14354	387.497
501.0000	1.11137	-0.000193203	1.14444	387.455
500.5000	0.992216	-0.000221059	1.14524	387.374
500.0000	0.638852	-0.000242103	1.14583	387.249
499.5000	0.59115	-0.000240042	1.14536	387.028
499.0000	0.363997	-0.000260052	1.14441	386.673
498.5000	0.504847	-0.000257945	1.14305	386.183
498.0000	0.857741	-0.000265935	1.14132	385.552
497.5000	1.29029	-0.000287386	1.1399	384.778
497.0000	1.42798	-0.000296112	1.13904	383.965
496.5000	1.27613	-0.000287933	1.13915	383.188
496.0000	1.40671	-0.00028053	1.14075	382.641
495.5000	0.593532	-0.00026906	1.14253	382.261
495.0000	0.784738	-0.000257242	1.14294	381.959
494.5000	0.64791	-0.000263149	1.14239	381.663
494.0000	0.82849	-0.000296332	1.14138	381.366
493.5000	0.841535	-0.00030077	1.14011	381.036
493.0000	0.796187	-0.000320789	1.13911	380.752
492.5000	0.753813	-0.000334949	1.13799	380.456
492.0000	0.630587	-0.000352764	1.13648	380.132
491.5000	0.478927	-0.000389028	1.13488	379.847
491.0000	0.564896	-0.00042032	1.13334	379.568
490.5000	0.930786	-0.000467992	1.13181	379.332
490.0000	0.521255	-0.000480622	1.13006	379.127
489.5000	0.518868	-0.000504882	1.12798	378.952
489.0000	0.620502	-0.00054332	1.1254	378.751
488.5000	0.787342	-0.000554937	1.12173	378.441
488.0000	0.550383	-0.000582536	1.11623	377.845
487.5000	0.830239	-0.000612479	1.11022	377.016
487.0000	0.844881	-0.000655928	1.10536	376.107
486.5000	0.745614	-0.000671583	1.10026	375.039
486.0000	0.724627	-0.00070259	1.0957	373.981
485.5000	0.635871	-0.00071631	1.09274	372.98
485.0000	0.580258	-0.000753902	1.09071	372.089
484.5000	0.564986	-0.000773849	1.08794	371.308
484.0000	0.224927	-0.000777156	1.08417	370.563
483.5000	0.315319	-0.000769732	1.08033	369.904
483.0000	0.463563	-0.000782173	1.07571	369.247
482.5000	0.668211	-0.000781503	1.07097	368.671
482.0000	0.833761	-0.000789616	1.06598	368.131
481.5000	0.603315	-0.000815932	1.06102	367.592
481.0000	0.747436	-0.00080388	1.05636	367.095
480.5000	0.554292	-0.000808309	1.05136	366.61
480.0000	0.127203	-0.000819432	1.04569	366.095
479.5000	0.134349	-0.00081592	1.03952	365.535
479.0000	-0.0742305	-0.000801377	1.03095	364.742
478.5000	-0.454865	-0.000806744	1.02185	363.7
478.0000	-0.429885	-0.000826576	1.01481	362.511
477.5000	-0.463795	-0.000822691	1.01171	361.583
477.0000	-0.550532	-0.000802233	1.00845	360.832
476.5000	-0.493891	-0.000833264	1.00047	359.85
476.0000	-0.480523	-0.000823688	0.991018	358.645
475.5000	-0.523357	-0.000845912	0.981253	357.195
475.0000	-0.39538	-0.000877545	0.97169	355.549
474.5000	-0.502053	-0.000856088	0.9632	353.834
474.0000	-0.484279	-0.000876655	0.955136	351.983
473.5000	-0.895377	-0.000865752	0.946256	349.867
473.0000	-0.968798	-0.000852829	0.937297	347.584
472.5000	-1.02438	-0.000832392	0.930302	345.283
472.0000	-0.863764	-0.000816333	0.926728	343.431
471.5000	-0.794186	-0.000835199	0.923984	341.948
471.0000	-0.834794	-0.000839054	0.921569	341.038
470.5000	-0.467636	-0.000832705	0.919212	340.447
470.0000	-0.23781	-0.000819488	0.915735	340.132
469.5000	-0.304646	-0.000834603	0.908102	339.693
469.0000	-0.345015	-0.000859596	0.895055	338.731
468.5000	-0.197734	-0.000852687	0.882777	337.434
468.0000	-0.22648	-0.000842083	0.87378	336.137
467.5000	-0.331012	-0.000856487	0.867415	335.083
467.0000	-0.237865	-0.000830875	0.862655	334.296
466.5000	-0.353127	-0.000818301	0.858383	333.733
466.0000	-0.319581	-0.000807155	0.853148	333.346
465.5000	-0.119482	-0.000804912	0.847279	333.154
465.0000	-0.0568452	-0.000820833	0.840887	333.226
464.5000	-0.184739	-0.000815029	0.832217	333.376
464.0000	-0.426457	-0.000820698	0.820128	333.254
463.5000	-0.466476	-0.000805848	0.80626	332.739
463.0000	-0.539054	-0.000799113	0.793179	331.926
462.5000	-0.592012	-0.000787736	0.78243	331.023
462.0000	-0.82884	-0.000790255	0.773108	330.095
461.5000	-0.864841	-0.000773105	0.764841	329.299
461.0000	-0.785211	-0.000758132	0.756904	328.652
460.5000	-0.991357	-0.00075935	0.748395	328.108
460.0000	-0.97363	-0.000744354	0.740072	327.671
459.5000	-0.89952	-0.000732569	0.731008	327.254
459.0000	-1.16553	-0.000707483	0.720235	326.713
458.5000	-0.994101	-0.00071084	0.708864	326.068
458.0000	-1.01377	-0.000720498	0.696748	325.24
457.5000	-1.00071	-0.00070535	0.684395	324.177
457.0000	-1.16111	-0.000694942	0.673149	322.989
456.5000	-1.04867	-0.00067027	0.663919	321.878
456.0000	-0.96712	-0.000645756	0.653883	320.805
455.5000	-0.796159	-0.000628799	0.641025	319.481
455.0000	-0.973907	-0.000625211	0.629529	318.108
454.5000	-0.931501	-0.000615017	0.62118	316.911
454.0000	-1.20135	-0.000610923	0.613571	315.965
453.5000	-1.12893	-0.00058918	0.604101	315.15
453.0000	-1.04074	-0.000579572	0.593897	314.335
452.5000	-1.04147	-0.000572987	0.583908	313.497
452.0000	-0.954516	-0.000539344	0.573998	312.605
451.5000	-0.93056	-0.000527873	0.563695	311.682
451.0000	-0.840472	-0.000524799	0.553921	310.801
450.5000	-0.804345	-0.000511587	0.543914	309.884
450.0000	-0.899744	-0.0005064	0.535011	309.025
449.5000	-0.932036	-0.000496832	0.527422	308.328
449.0000	-0.933898	-0.000485998	0.520318	307.805
448.5000	-0.977606	-0.000470503	0.510795	307.2
448.0000	-0.837325	-0.000450844	0.500985	306.507
447.5000	-0.807488	-0.000451754	0.493638	305.918
447.0000	-0.839648	-0.000458259	0.48851	305.606
446.5000	-0.794633	-0.000433329	0.48189	305.376
446.0000	-0.805432	-0.000438701	0.471085	304.879
445.5000	-0.723634	-0.000427808	0.460321	304.112
445.0000	-0.751501	-0.000406895	0.451232	303.228
444.5000	-0.921214	-0.000393042	0.442683	302.32
444.0000	-0.952677	-0.00038105	0.434452	301.415
443.5000	-0.864134	-0.000379469	0.42623	300.445
443.0000	-1.02979	-0.000381011	0.41942	299.596
442.5000	-0.954789	-0.000366561	0.413037	298.797
442.0000	-0.883844	-0.000358049	0.407111	298.115
441.5000	-0.892642	-0.000343748	0.400421	297.394
441.0000	-0.975559	-0.000320224	0.394115	296.729
440.5000	-1.03814	-0.000313764	0.387948	296.079
440.0000	-1.11115	-0.00031591	0.381547	295.413
439.5000	-1.08216	-0.000314463	0.374863	294.729
439.0000	-1.09243	-0.000298655	0.367617	293.999
438.5000	-0.953141	-0.000280497	0.359894	293.248
438.0000	-1.04279	-0.000269554	0.352168	292.517
437.5000	-0.898435	-0.000253997	0.345038	291.833
437.0000	-0.628383	-0.000234133	0.337398	291.121
436.5000	-0.661528	-0.000242052	0.331491	290.538
436.0000	-0.486026	-0.000228573	0.326125	290.021
435.5000	-0.345704	-0.00022005	0.320165	289.515
435.0000	-0.226727	-0.000196325	0.313633	288.995
434.5000	-0.146504	-0.00018862	0.307001	288.469
434.0000	-0.0855786	-0.000188817	0.300436	287.916
433.5000	-0.217696	-0.00016204	0.294356	287.378
433.0000	-0.186698	-0.000151355	0.288408	286.802
432.5000	-0.12546	-0.000138578	0.282907	286.262
432.0000	0.00528476	-0.000139728	0.276939	285.685
431.5000	-0.014054	-0.000143875	0.270989	285.099
431.0000	0.186462	-0.000133156	0.265246	284.52
430.5000	0.244413	-0.000117525	0.259833	283.96
430.0000	0.171343	-0.000123122	0.254773	283.419
429.5000	0.233452	-0.000125069	0.249465	282.861
429.0000	0.292143	-0.000125644	0.2442	282.302
428.5000	0.219528	-0.000123525	0.238903	281.749
428.0000	0.280852	-0.00012114	0.233086	281.175
427.5000	0.309209	-0.000120331	0.228101	280.656
427.0000	0.160102	-0.000111949	0.223386	280.151
426.5000	0.0846569	-0.000109009	0.218819	279.652
426.0000	-0.010195	-0.000110159	0.213985	279.11
425.5000	0.129757	-0.000111437	0.20926	278.539
425.0000	0.0950883	-0.000125068	0.204462	277.953
424.5000	0.0866982	-0.000124329	0.199905	277.357
424.0000	0.198625	-0.000124646	0.195749	276.78
423.5000	0.157309	-0.000111315	0.192287	276.268
423.0000	0.180773	-0.00010222	0.18876	275.816
422.5000	0.0998422	-0.00010915	0.185041	275.405
422.0000	-0.00194641	-0.000118279	0.181123	275.006
421.5000	0.0406426	-0.000121345	0.177217	274.617
421.0000	0.0473201	-0.000122899	0.173727	274.261
420.5000	0.176241	-0.000114834	0.170019	273.889
420.0000	0.260427	-0.000106095	0.166519	273.521
419.5000	0.316411	-0.000100372	0.162897	273.125
419.0000	0.26342	-9.87241E-005	0.159489	272.758
418.5000	0.371998	-0.000108306	0.156154	272.434
418.0000	0.308909	-0.000100512	0.153205	272.121
417.5000	0.396806	-9.85766E-005	0.150256	271.827
417.0000	0.338015	-0.000105283	0.147754	271.559
416.5000	0.516003	-0.000108722	0.145469	271.346
416.0000	0.483367	-0.000111274	0.142829	271.164
415.5000	0.407907	-0.000105281	0.139681	270.953
415.0000	0.490938	-0.000103307	0.136527	270.705
414.5000	0.536585	-0.000105799	0.133684	270.412
414.0000	0.590224	-9.32537E-005	0.131403	270.127
413.5000	0.640075	-7.70066E-005	0.129287	269.838
413.0000	0.508613	-7.04635E-005	0.12739	269.582
412.5000	0.500857	-7.42724E-005	0.125547	269.354
412.0000	0.481827	-8.11962E-005	0.123984	269.16
411.5000	0.510322	-8.44417E-005	0.121976	268.95
411.0000	0.599401	-9.46442E-005	0.120282	268.771
410.5000	0.654976	-0.000101675	0.11876	268.601
410.0000	0.626088	-0.00010497	0.117421	268.446
409.5000	0.538534	-0.000105751	0.116017	268.298
409.0000	0.431193	-0.000104259	0.114677	268.173
408.5000	0.49279	-9.62345E-005	0.112965	268.043
408.0000	0.403794	-0.000104223	0.111147	267.918
407.5000	0.506794	-9.35216E-005	0.10915	267.772
407.0000	0.608465	-0.000102436	0.107413	267.621
406.5000	0.57926	-0.000117134	0.106002	267.485
406.0000	0.619617	-0.000116939	0.104563	267.342
405.5000	0.519538	-0.000119008	0.102873	267.183
405.0000	0.515038	-0.000125418	0.101334	267.015
404.5000	0.629149	-0.000121222	0.0998232	266.83
404.0000	0.532307	-0.000127059	0.0986181	266.617
403.5000	0.333261	-0.000116922	0.0973886	266.379
403.0000	0.223811	-0.000119705	0.0965508	266.132
402.5000	0.292514	-0.000112953	0.0952453	265.859
402.0000	0.172663	-0.000116591	0.0945604	265.613
401.5000	0.15593	-0.0001177	0.0942001	265.365
401.0000	0.254166	-0.000114174	0.0934917	265.126
400.5000	0.334951	-0.000101908	0.0928191	264.902
400.0000	0.402419	-9.05066E-005	0.0921836	264.713
399.5000	0.319981	-9.88192E-005	0.0921677	264.542
399.0000	0.291858	-9.6093E-005	0.0921825	264.407
398.5000	0.282665	-0.000103638	0.092002	264.289
398.0000	0.236811	-0.000108408	0.0916315	264.179
397.5000	0.138364	-0.00011139	0.0913507	264.101
397.0000	0.171292	-0.000121678	0.0913364	264.043
396.5000	0.234125	-0.000131111	0.0911705	264.019
396.0000	0.157219	-0.000129491	0.0910669	264.018
395.5000	0.21194	-0.000133703	0.0905872	264.042
395.0000	0.286998	-0.000128989	0.0903016	264.097
394.5000	0.398083	-0.000133449	0.0902649	264.187
394.0000	0.304398	-0.000124229	0.0903104	264.307
393.5000	0.419306	-0.0001141	0.0899781	264.436
393.0000	0.452674	-0.000120477	0.0896012	264.587
392.5000	0.532931	-0.000110486	0.0893684	264.727
392.0000	0.513836	-0.000118579	0.0893847	264.853
391.5000	0.469954	-0.000118561	0.0895374	264.958
391.0000	0.452124	-0.000124973	0.0896048	265.056
390.5000	0.428876	-0.000128233	0.0895346	265.153
390.0000	0.420388	-0.000119933	0.0893841	265.233
389.5000	0.412268	-0.000103899	0.0896761	265.314
389.0000	0.481125	-0.000108042	0.0900543	265.381
388.5000	0.433329	-9.43852E-005	0.0901806	265.442
388.0000	0.495472	-8.16928E-005	0.090222	265.502
387.5000	0.533331	-7.71636E-005	0.0906808	265.566
387.0000	0.535972	-9.1277E-005	0.0917047	265.637
386.5000	0.460016	-7.82391E-005	0.0925146	265.698
386.0000	0.408151	-8.63746E-005	0.0934146	265.752
385.5000	0.417558	-9.8601E-005	0.0942546	265.796
385.0000	0.431373	-0.000108395	0.0950959	265.835
384.5000	0.27307	-0.000115482	0.0959621	265.873
384.0000	0.12792	-0.000111793	0.0969762	265.914
383.5000	0.214757	-0.000104233	0.0978377	265.963
383.0000	0.288724	-0.000106043	0.0984774	266.006
382.5000	0.347871	-9.81215E-005	0.0990323	266.034
382.0000	0.277863	-8.70247E-005	0.0999696	266.058
381.5000	0.202685	-9.53099E-005	0.101361	266.11
381.0000	0.0709283	-8.35193E-005	0.102486	266.168
380.5000	0.0774949	-8.07676E-005	0.103382	266.221
380.0000	-0.0075214	-8.98056E-005	0.104596	266.281
379.5000	-0.0878195	-8.34634E-005	0.105774	266.334
379.0000	-0.261047	-8.79405E-005	0.106648	266.393
378.5000	-0.308208	-7.65024E-005	0.107095	266.443
378.0000	-0.199776	-7.2819E-005	0.107625	266.494
377.5000	-0.115974	-7.77537E-005	0.108196	266.535
377.0000	-0.0850965	-7.26009E-005	0.108666	266.568
376.5000	-0.24785	-5.95311E-005	0.109315	266.594
376.0000	-0.174112	-6.43459E-005	0.109939	266.611
375.5000	-0.0890962	-7.03557E-005	0.11034	266.625
375.0000	-0.0677999	-7.72109E-005	0.110693	266.626
374.5000	-0.241518	-7.59113E-005	0.111108	266.626
374.0000	-0.181248	-8.67309E-005	0.111672	266.635
373.5000	-0.245104	-9.12657E-005	0.112068	266.638
373.0000	-0.125516	-0.000105267	0.112204	266.638
372.5000	0.0189889	-0.000105229	0.112413	266.637
372.0000	0.179757	-0.000114867	0.112661	266.633
371.5000	0.107379	-0.000111912	0.112918	266.638
371.0000	0.12788	-0.000137995	0.113338	266.643
370.5000	0.254709	-0.000130919	0.113849	266.65
370.0000	0.153564	-0.000136473	0.11429	266.665
369.5000	-0.0270599	-0.000148742	0.114703	266.684
369.0000	-0.0249036	-0.000137785	0.115282	266.719
368.5000	-0.0366428	-0.000147362	0.115936	266.755
368.0000	-0.0533052	-0.000146821	0.116463	266.805
367.5000	-0.100727	-0.000154753	0.117185	266.866
367.0000	-0.0688444	-0.000166417	0.118098	266.928
366.5000	-0.0576395	-0.000161671	0.118768	266.998
366.0000	-0.150161	-0.000161665	0.119491	267.083
365.5000	-0.128657	-0.000164609	0.120018	267.152
365.0000	0.109252	-0.000160941	0.12047	267.227
364.5000	0.174735	-0.000163514	0.121086	267.296
364.0000	0.156871	-0.000162115	0.12157	267.371
363.5000	0.120502	-0.0001617	0.122538	267.46
363.0000	0.267768	-0.000161523	0.123367	267.541
362.5000	0.273315	-0.000160861	0.124026	267.62
362.0000	0.353341	-0.000160301	0.124659	267.699
361.5000	0.529827	-0.000142762	0.125441	267.776
361.0000	0.395031	-0.000152134	0.126105	267.845
360.5000	0.431538	-0.000148439	0.126694	267.927
360.0000	0.554355	-0.000145765	0.127168	267.99
359.5000	0.668387	-0.000149861	0.127627	268.058
359.0000	0.81336	-0.000145302	0.127757	268.119
358.5000	0.806153	-0.000137209	0.127696	268.172
358.0000	0.726186	-0.000144588	0.127743	268.233
357.5000	0.748855	-0.000143693	0.127717	268.288
357.0000	0.77434	-0.000153305	0.127977	268.345
356.5000	0.721898	-0.000145001	0.128624	268.409
356.0000	0.775963	-0.000150454	0.128824	268.465
355.5000	0.741082	-0.00015102	0.12899	268.52
355.0000	0.931821	-0.000148435	0.129022	268.574
354.5000	0.802887	-0.00015061	0.129046	268.629
354.0000	0.851128	-0.000149906	0.129289	268.693
353.5000	0.947559	-0.000160549	0.129438	268.748
353.0000	0.843399	-0.000172627	0.12947	268.801
352.5000	0.997806	-0.000171927	0.129622	268.862
352.0000	1.22994	-0.000179686	0.129875	268.93
351.5000	1.20678	-0.000184372	0.130129	268.995
351.0000	1.28629	-0.000180238	0.130681	269.058
350.5000	1.20923	-0.000189508	0.131315	269.117
350.0000	1.2819	-0.00018697	0.132239	269.198
349.5000	1.29369	-0.000190379	0.133218	269.276
349.0000	1.31051	-0.000190725	0.134147	269.343
348.5000	1.22751	-0.000181647	0.135258	269.419
348.0000	1.187	-0.000193374	0.136008	269.485
347.5000	1.0552	-0.000192195	0.136889	269.538
347.0000	1.08186	-0.000188091	0.137916	269.6
346.5000	0.886807	-0.000203067	0.138728	269.661
346.0000	0.949161	-0.000208933	0.139499	269.725
345.5000	0.85132	-0.000216513	0.140416	269.787
345.0000	0.921918	-0.000219483	0.141436	269.855
344.5000	1.17944	-0.000218381	0.142342	269.911
344.0000	1.15952	-0.000229889	0.143591	269.982
343.5000	0.971949	-0.000228077	0.144334	270.032
343.0000	0.972866	-0.000245402	0.145065	270.09
342.5000	1.03973	-0.000232164	0.145746	270.156
342.0000	1.0808	-0.00022865	0.14635	270.219
341.5000	1.01187	-0.00023617	0.146869	270.265
341.0000	1.14351	-0.000226171	0.147759	270.326
340.5000	1.23813	-0.000244578	0.148542	270.402
340.0000	1.24798	-0.000253315	0.149262	270.475
339.5000	1.3876	-0.000262607	0.149763	270.551
339.0000	1.28873	-0.000274371	0.150555	270.629
338.5000	1.33515	-0.00027333	0.151369	270.702
338.0000	1.45967	-0.000259488	0.15216	270.779
337.5000	1.5563	-0.000245182	0.152951	270.862
337.0000	1.47806	-0.000253756	0.153737	270.955
336.5000	1.48237	-0.000255722	0.154551	271.031
336.0000	1.45168	-0.000261161	0.155311	271.115
335.5000	1.63118	-0.000266279	0.156105	271.2
335.0000	1.52773	-0.000282863	0.157025	271.296
334.5000	1.5416	-0.000289364	0.157755	271.384
334.0000	1.56765	-0.000307146	0.158723	271.483
333.5000	1.64014	-0.000323643	0.160149	271.59
333.0000	1.7522	-0.000330184	0.161326	271.707
332.5000	1.77449	-0.000341051	0.162009	271.806
332.0000	1.81834	-0.000336437	0.162666	271.896
331.5000	1.91732	-0.000340441	0.163844	272.012
331.0000	1.88406	-0.000347972	0.164984	272.122
330.5000	1.87445	-0.000355202	0.165906	272.232
330.0000	1.71012	-0.000376574	0.166827	272.335
329.5000	1.73876	-0.000382986	0.167768	272.439
329.0000	1.70336	-0.00041684	0.168784	272.56
328.5000	1.70316	-0.000424615	0.169783	272.668
328.0000	1.73667	-0.000435429	0.17068	272.777
327.5000	1.53105	-0.000436389	0.171705	272.879
327.0000	1.57103	-0.000435256	0.172882	272.972
326.5000	1.47157	-0.000433913	0.174334	273.086
326.0000	1.39704	-0.000446752	0.176031	273.22
325.5000	1.33937	-0.000456515	0.177445	273.348
325.0000	1.18029	-0.000464721	0.17867	273.49
324.5000	1.24912	-0.000483782	0.180089	273.635
324.0000	1.20913	-0.000503012	0.181837	273.793
323.5000	1.06224	-0.000513537	0.183643	273.947
323.0000	0.930397	-0.0005269	0.185152	274.098
322.5000	0.983129	-0.000533658	0.186706	274.257
322.0000	1.05613	-0.000523437	0.188204	274.423
321.5000	1.17148	-0.000540051	0.190077	274.601
321.0000	1.1763	-0.000554708	0.192015	274.782
320.5000	1.19672	-0.000567	0.193854	274.948
320.0000	1.27358	-0.000565845	0.195559	275.117
319.5000	1.20339	-0.000585609	0.197289	275.287
319.0000	1.13686	-0.000580349	0.199057	275.485
318.5000	1.13875	-0.000601219	0.200846	275.694
318.0000	1.33477	-0.000611689	0.202353	275.872
317.5000	1.35703	-0.00061111	0.203963	276.041
317.0000	1.31904	-0.000622685	0.205729	276.198
316.5000	1.30723	-0.000617233	0.20756	276.348
316.0000	1.3681	-0.000630161	0.209532	276.512
315.5000	1.44309	-0.000634563	0.211195	276.682
315.0000	1.60197	-0.000641923	0.212932	276.869
314.5000	1.62938	-0.000641576	0.214571	277.048
314.0000	1.71558	-0.000650442	0.216473	277.241
313.5000	1.70302	-0.000672732	0.218508	277.443
313.0000	2.08999	-0.000667071	0.22053	277.654
312.5000	2.04199	-0.000654648	0.222612	277.881
312.0000	1.95675	-0.000660086	0.224872	278.106
311.5000	2.02276	-0.000668621	0.226965	278.328
311.0000	2.15633	-0.000668984	0.229403	278.56
310.5000	2.21664	-0.000692133	0.231749	278.823
310.0000	2.0228	-0.000700133	0.234265	279.081
309.5000	2.1237	-0.000708308	0.237014	279.357
309.0000	2.36386	-0.000717501	0.23993	279.655
308.5000	2.47493	-0.000725305	0.242862	279.984
308.0000	2.45161	-0.000733043	0.245729	280.301
307.5000	2.4309	-0.000739707	0.249183	280.667
307.0000	2.48099	-0.000744444	0.252719	281.02
306.5000	2.59033	-0.000757574	0.256739	281.419
306.0000	2.76105	-0.000775962	0.260917	281.819
305.5000	2.71571	-0.000788876	0.265286	282.265
305.0000	2.84827	-0.000800788	0.26984	282.717
304.5000	2.61696	-0.000813415	0.275147	283.225
304.0000	2.71713	-0.000823665	0.280751	283.753
303.5000	2.65568	-0.000833297	0.286537	284.299
303.0000	2.53348	-0.000854281	0.292752	284.909
302.5000	2.65897	-0.000868149	0.299279	285.553
302.0000	2.72009	-0.000885251	0.306298	286.225
301.5000	2.77354	-0.000884585	0.313736	286.934
301.0000	2.72613	-0.000895142	0.321298	287.676
300.5000	2.6411	-0.000907041	0.328293	288.366
300.0000	2.70049	-0.00093363	0.336978	289.19
299.5000	2.87688	-0.000948789	0.345184	289.982
299.0000	2.83543	-0.000953112	0.353308	290.782
298.5000	2.80251	-0.00096538	0.361767	291.627
298.0000	2.73651	-0.000976001	0.369873	292.429
297.5000	2.83834	-0.000983197	0.37846	293.273
297.0000	2.83684	-0.000979	0.386243	293.998
296.5000	2.97372	-0.000994009	0.393518	294.695
296.0000	2.9971	-0.000991523	0.400532	295.375
295.5000	3.0391	-0.000986084	0.40779	296.05
295.0000	3.27211	-0.000976786	0.414484	296.657
294.5000	3.28644	-0.000974481	0.421054	297.265
294.0000	3.03589	-0.000968011	0.427518	297.906
293.5000	3.07902	-0.000973604	0.432487	298.418
293.0000	3.13861	-0.000951382	0.437676	298.945
292.5000	3.39478	-0.000951651	0.442561	299.466
292.0000	3.35764	-0.000924113	0.446869	299.942
291.5000	3.14797	-0.000896762	0.451039	300.393
291.0000	3.12545	-0.000880245	0.455055	300.828
290.5000	2.86248	-0.000866301	0.459202	301.269
290.0000	2.84086	-0.000844801	0.46317	301.675
289.5000	2.64651	-0.000815815	0.466357	302.034
289.0000	2.52778	-0.000796471	0.469487	302.394
288.5000	2.40361	-0.000785307	0.473012	302.805
288.0000	1.97606	-0.000769015	0.47642	303.208
287.5000	2.09523	-0.000751595	0.479966	303.636
287.0000	1.81784	-0.00075164	0.483339	304.089
286.5000	1.64823	-0.000734614	0.486375	304.529
286.0000	1.59028	-0.000706703	0.489415	304.933
285.5000	1.67322	-0.00067937	0.492933	305.334
285.0000	1.52873	-0.000646742	0.496747	305.77
284.5000	1.17153	-0.000644783	0.500198	306.171
284.0000	0.966145	-0.00061468	0.503939	306.601
283.5000	0.796854	-0.000616592	0.507924	307.043
283.0000	0.553562	-0.000607697	0.511734	307.472
282.5000	0.418202	-0.000576121	0.51603	307.947
282.0000	0.42108	-0.000574968	0.520144	308.437
281.5000	0.393947	-0.000559905	0.524237	308.928
281.0000	0.345394	-0.000547903	0.528642	309.432
280.5000	0.194444	-0.000520682	0.533366	309.991
280.0000	0.323492	-0.000473757	0.538481	310.587
279.5000	0.239483	-0.000450342	0.543891	311.223
279.0000	-0.135445	-0.00042614	0.549201	311.858
278.5000	0.0464158	-0.000376024	0.555397	312.577
278.0000	0.0939221	-0.000362176	0.562652	313.365
277.5000	0.210472	-0.000337842	0.569696	314.131
277.0000	0.099974	-0.000308338	0.577307	314.985
276.5000	0.0752661	-0.000287229	0.585203	315.885
276.0000	-0.0734573	-0.000277529	0.592962	316.757
275.5000	-0.0643477	-0.000251786	0.602262	317.771
275.0000	0.0213388	-0.000219834	0.612174	318.856
274.5000	0.264565	-0.00017487	0.622364	319.994
274.0000	0.405832	-0.000154631	0.633583	321.274
273.5000	0.0844614	-0.000136511	0.644744	322.51
273.0000	0.387253	-8.74047E-005	0.657271	323.893
272.5000	0.343836	-5.34968E-005	0.670533	325.366
272.0000	0.205687	-3.2421E-005	0.684448	326.93
271.5000	-0.0231996	-1.29744E-005	0.699962	328.676
271.0000	0.130886	1.05524E-005	0.715884	330.436
270.5000	0.330935	2.03207E-005	0.732899	332.303
270.0000	0.117086	4.0393E-005	0.750339	334.26
269.5000	0.0780458	7.88486E-005	0.768681	336.357
269.0000	-0.0942663	0.000101303	0.787132	338.461
268.5000	-0.15348	0.000113103	0.807793	340.809
268.0000	-0.203792	0.000146793	0.829644	343.291
267.5000	-0.517447	0.000160751	0.852483	345.905
267.0000	-0.678187	0.000207786	0.877234	348.788
266.5000	-0.604261	0.000226284	0.903094	351.837
266.0000	-0.826691	0.000262813	0.927764	354.71
265.5000	-1.07007	0.00032993	0.954728	357.84
265.0000	-0.891756	0.000358022	0.98335	361.231
264.5000	-0.911428	0.000361332	1.01073	364.529
264.0000	-1.01365	0.000383371	1.03831	367.876
263.5000	-0.770145	0.000407329	1.0673	371.394
263.0000	-1.01252	0.000411702	1.09347	374.601
262.5000	-1.0228	0.000443271	1.12176	378.14
262.0000	-1.18727	0.000468253	1.14811	381.514
261.5000	-1.40558	0.000485019	1.17437	384.872
261.0000	-1.22744	0.000500144	1.19936	388.043
260.5000	-1.32277	0.000491787	1.22501	391.347
260.0000	-1.018	0.000509151	1.25035	394.659
259.5000	-0.651418	0.000502281	1.27532	397.967
259.0000	-0.776505	0.000518037	1.2999	401.281
258.5000	-1.17636	0.000498421	1.32454	404.587
258.0000	-1.71542	0.000473031	1.34887	407.881
257.5000	-1.89752	0.000467811	1.37177	411.004
257.0000	-2.14937	0.000456746	1.39591	414.322
256.5000	-3.21343	0.000456541	1.41894	417.502
256.0000	-3.60442	0.000462298	1.44355	420.897
255.5000	-3.93729	0.000412324	1.46851	424.344
255.0000	-3.23956	0.000377755	1.49357	427.842
254.5000	-3.45031	0.000341496	1.51757	431.215
254.0000	-3.17807	0.000334128	1.54168	434.616
253.5000	-2.90224	0.000310993	1.56874	438.393
253.0000	-2.26367	0.000240606	1.59288	441.814
252.5000	-2.9405	0.000135596	1.62767	446.847
252.0000	-3.83845	8.45966E-005	1.65583	450.942
251.5000	-3.76341	2.08164E-005	1.67969	454.421
251.0000	-3.66533	-3.67539E-005	1.70324	457.83
250.5000	-4.05212	-9.17548E-005	1.72582	461.155
250.0000	-3.80208	-0.000156454	1.74631	464.219
249.5000	-3.74974	-0.000217795	1.76595	467.187
249.0000	-4.21732	-0.000331286	1.78586	470.212
248.5000	-3.80375	-0.000333713	1.80424	472.994
248.0000	-4.04653	-0.000386791	1.82272	475.823
247.5000	-4.19431	-0.000346531	1.83955	478.444
247.0000	-4.69119	-0.000303193	1.85665	481.14
246.5000	-4.52844	-0.00032324	1.87342	483.777
246.0000	-5.47277	-0.000402675	1.89011	486.387
245.5000	-5.71572	-0.000509117	1.90714	489.133
245.0000	-6.12973	-0.000610617	1.92438	491.92
244.5000	-7.76211	-0.000627835	1.94201	494.766
244.0000	-7.38231	-0.000642014	1.95995	497.699
243.5000	-7.57662	-0.00064821	1.97749	500.602
243.0000	-8.1189	-0.00077603	1.99548	503.628
242.5000	-8.07249	-0.0008522	2.01648	507.182
242.0000	-7.91465	-0.000927894	2.03572	510.45
241.5000	-8.28872	-0.000949543	2.05855	514.337
241.0000	-7.00516	-0.000987263	2.08067	518.117
240.5000	-7.59595	-0.00116298	2.10667	522.645
240.0000	-6.59759	-0.00134117	2.13213	527.09
239.5000	-6.54601	-0.00148047	2.16414	532.696
239.0000	-8.80751	-0.00162043	2.19415	537.948
238.5000	-10.3229	-0.0017102	2.22812	543.935
238.0000	-10.1572	-0.00174615	2.26624	550.758
237.5000	-9.04016	-0.00173726	2.30327	557.454
237.0000	-8.34228	-0.00177962	2.34485	565.033
236.5000	-8.11995	-0.00169086	2.38897	573.15
236.0000	-6.28971	-0.00177185	2.43328	581.371
235.5000	-6.62689	-0.00182593	2.48708	591.511
235.0000	-7.98706	-0.00197894	2.52555	598.845
234.5000	-8.70631	-0.00185874	2.56829	607.052
234.0000	-7.54363	-0.00177372	2.61506	616.122
233.5000	-10.2294	-0.0018556	2.66961	626.789
233.0000	-10.8515	-0.0018243	2.72898	638.566
232.5000	-11.4175	-0.00172587	2.78726	650.349
232.0000	-11.4264	-0.00166558	2.85642	664.607
231.5000	-10.2021	-0.00153554	2.91401	676.726
231.0000	-7.98581	-0.00123459	2.97876	690.595
230.5000	-6.50853	-0.00137708	3.04344	704.789
230.0000	-3.56952	-0.00128837	3.1043	718.487
229.5000	-1.60638	-0.00130071	3.16759	733.011
229.0000	-2.50748	-0.00112432	3.22907	747.473
228.5000	-0.67574	-0.00104989	3.28862	761.769
228.0000	1.74578	-0.000885374	3.34247	775.022
227.5000	-1.40216	-0.000947691	3.3959	788.613
227.0000	-4.36689	-0.000896952	3.44592	801.701
226.5000	-4.11482	-0.000738052	3.49455	814.804
226.0000	-2.12255	-0.000626416	3.53465	826.023
225.5000	-4.09456	-0.000463621	3.57271	837.097
225.0000	-1.86033	-0.000331257	3.60615	847.387
224.5000	-0.809876	-0.000365108	3.6347	856.732
224.0000	1.63202	-0.000225013	3.65878	865.116
223.5000	2.10653	-0.00040696	3.67876	872.549
223.0000	3.12755	-0.000118104	3.69457	879.018
222.5000	0.422813	-0.000181114	3.70767	885.553
222.0000	0.200731	8.98132E-006	3.71511	890.506
221.5000	1.10438	0.000300473	3.71806	894.583
221.0000	-2.31399	-6.51174E-005	3.7177	897.395
220.5000	-4.41181	-0.000260165	3.71455	899.575
220.0000	-6.12097	-0.000338838	3.70951	901.478

##### Extended Information
[Comments]
Sample name	JS187+JS190_5E-5_H2O_50-50
Comment
User
Division
Company	Labo systeme complexes hors equilibre

[Detailed Information]
Creation date	1/23/2024 11:38 AM

Data array type	Linear data array * 4
Horizontal axis	Wavelength [nm]
Vertical axis(1)	CD [mdeg]
Vertical axis(2)	LD [dOD]
Vertical axis(3)	Abs
Vertical axis(4)	HT [V]
Start	700 nm
End	220 nm
Data interval	0.5 nm
Data points	961     

[Measurement Information]
Instrument name	CD Jasco
Model name	J-1500
Serial No.	A005261638

Detector	PM-539
Detector S/N	A0052PM539
  Lock-in amp.	X mode
  HT volt	Auto

Detector	EXPML-535
Detector S/N	A0001
  Lock-in amp.	X mode
  HT volt	Auto

Measurement date	1/23/2024 11:38 AM

Overload detect	1
Photometric mode	CD, LD, Abs, HT
Measure range	700 - 220 nm
Data pitch	0.5 nm
CD scale	200 mdeg/1.0 dOD
FL scale	200 mdeg/1.0 dOD
D.I.T.	1 sec
Bandwidth	1.00 nm
Start mode	Immediately
Scanning speed	500 nm/min
Baseline correction	Baseline
Shutter control	Auto


