TITLE	JS187+JS190_5E-5_H2O_42-58
DATA TYPE	
ORIGIN	JASCO
OWNER	
DATE	24/01/23
TIME	11:22:30
SPECTROMETER/DATA SYSTEM	
LOCALE	1033
RESOLUTION	
DELTAX	-0.5
XUNITS	NANOMETERS
YUNITS	CD [mdeg]
Y2UNITS	LD [dOD]
Y3UNITS	ABSORBANCE
Y4UNITS	HT [V]
FIRSTX	  700.0000
LASTX	  220.0000
NPOINTS	     961
FIRSTY	     1.27443
MAXY	     7.42526
MINY	   -11.23698
XYDATA
700.0000	1.27443	9.42156E-005	-0.0521123	299.394
699.5000	1.27106	9.30751E-005	-0.0533443	299.075
699.0000	1.17108	8.49602E-005	-0.0545841	298.712
698.5000	1.44075	0.000102875	-0.0555019	298.295
698.0000	1.49555	0.000107835	-0.0567902	297.844
697.5000	1.36945	0.000126869	-0.0585078	297.378
697.0000	1.16602	0.00014837	-0.0605292	296.866
696.5000	1.09251	0.000157182	-0.0616979	296.353
696.0000	1.03805	0.000166375	-0.0621656	295.789
695.5000	1.28054	0.000158782	-0.062217	295.266
695.0000	1.24848	0.000150079	-0.0615264	294.814
694.5000	1.37013	0.000146305	-0.0607188	294.393
694.0000	1.43206	0.000142597	-0.0587396	294.005
693.5000	1.5023	0.000135235	-0.0563604	293.659
693.0000	1.23495	0.00013297	-0.053371	293.368
692.5000	1.13183	0.000125891	-0.0504563	293.094
692.0000	1.12915	0.000140631	-0.0476173	292.852
691.5000	1.20134	0.000127174	-0.0444937	292.646
691.0000	1.04055	0.000132921	-0.0416079	292.436
690.5000	1.07248	0.000134698	-0.0395926	292.249
690.0000	0.998932	0.000131467	-0.0377124	292.097
689.5000	0.988268	0.000144107	-0.0354748	292
689.0000	0.981688	0.000144491	-0.0320238	291.999
688.5000	0.939882	0.000133199	-0.0284167	292.091
688.0000	0.882898	0.000136836	-0.0239707	292.288
687.5000	0.759594	0.00013104	-0.0194164	292.543
687.0000	0.617752	0.00014705	-0.015742	292.794
686.5000	0.252311	0.000146487	-0.012947	293.052
686.0000	0.17433	0.000135193	-0.0117124	293.297
685.5000	0.256745	0.000149845	-0.0115735	293.542
685.0000	0.11931	0.000139298	-0.0120279	293.767
684.5000	0.117506	0.000150337	-0.012988	293.988
684.0000	0.209298	0.000165628	-0.0144949	294.194
683.5000	0.331135	0.000173649	-0.0154376	294.416
683.0000	0.339881	0.000185212	-0.0162327	294.664
682.5000	0.266822	0.000174865	-0.0163365	294.933
682.0000	0.611228	0.000164185	-0.0165661	295.227
681.5000	0.677314	0.000153448	-0.0164396	295.507
681.0000	0.799635	0.000148273	-0.0166695	295.767
680.5000	1.06246	0.000132006	-0.0173983	295.956
680.0000	1.04199	0.000113749	-0.0198254	296.055
679.5000	0.949677	0.000105575	-0.0228198	296.094
679.0000	0.980661	0.000106132	-0.0266118	296.104
678.5000	1.0778	0.000107977	-0.0291937	296.094
678.0000	1.17941	0.000116131	-0.031469	296.073
677.5000	1.4687	0.000139761	-0.0328816	296.043
677.0000	1.28927	0.000147183	-0.0334461	296.021
676.5000	1.36153	0.000157684	-0.0331682	296.008
676.0000	1.32286	0.000148491	-0.0328105	295.999
675.5000	1.41758	0.000153927	-0.0323587	295.999
675.0000	1.25728	0.000141145	-0.0317432	295.999
674.5000	1.26213	0.000137403	-0.0307118	296.009
674.0000	1.0694	0.000157668	-0.0295389	296.033
673.5000	0.844014	0.000154464	-0.0283028	296.065
673.0000	0.594984	0.000169054	-0.0280457	296.098
672.5000	0.401932	0.000174446	-0.0279092	296.13
672.0000	0.401592	0.000194972	-0.0274436	296.169
671.5000	0.311434	0.000192066	-0.0264029	296.221
671.0000	0.0798346	0.000186077	-0.0252324	296.287
670.5000	0.107994	0.000194936	-0.0239661	296.345
670.0000	0.0116387	0.000212989	-0.0228024	296.417
669.5000	0.291782	0.000213572	-0.0222	296.488
669.0000	0.236051	0.000206617	-0.0214986	296.567
668.5000	0.394645	0.000196285	-0.0208481	296.645
668.0000	0.428841	0.000167246	-0.0203167	296.744
667.5000	0.460613	0.000160213	-0.0198888	296.849
667.0000	0.14872	0.000155959	-0.0195981	296.969
666.5000	0.237922	0.000161253	-0.0193598	297.083
666.0000	0.41893	0.000166669	-0.0197743	297.21
665.5000	0.412458	0.000158324	-0.0198877	297.326
665.0000	0.696749	0.000164218	-0.0191375	297.448
664.5000	0.969442	0.000170754	-0.0182283	297.557
664.0000	0.931205	0.000164918	-0.0180535	297.66
663.5000	1.01378	0.000170037	-0.0188762	297.762
663.0000	1.36803	0.000162325	-0.0190278	297.848
662.5000	1.32384	0.000181383	-0.019303	297.927
662.0000	1.30522	0.000163532	-0.0196532	297.994
661.5000	1.10114	0.000161926	-0.0195019	298.046
661.0000	1.07501	0.000165563	-0.0197119	298.091
660.5000	0.848211	0.000188607	-0.0202321	298.114
660.0000	1.11867	0.000195211	-0.0204897	298.128
659.5000	1.0482	0.00021635	-0.0211885	298.132
659.0000	1.12481	0.000227023	-0.0218282	298.105
658.5000	1.04066	0.000203688	-0.0222973	298.061
658.0000	0.855472	0.000200973	-0.0224165	297.999
657.5000	0.981433	0.000200557	-0.0231814	297.911
657.0000	0.656028	0.000187199	-0.0231299	297.797
656.5000	0.649054	0.00018696	-0.0240867	297.671
656.0000	0.801034	0.000201651	-0.0249149	297.534
655.5000	0.982927	0.000198014	-0.0242801	297.384
655.0000	0.931318	0.000201049	-0.0241795	297.236
654.5000	0.938071	0.000187388	-0.0245605	297.09
654.0000	0.959058	0.000180905	-0.0241194	296.946
653.5000	1.12053	0.000202882	-0.0229399	296.812
653.0000	1.11376	0.000201892	-0.0212503	296.707
652.5000	1.15056	0.000220393	-0.0195564	296.629
652.0000	1.38742	0.000218454	-0.0175208	296.592
651.5000	1.19008	0.000237808	-0.0150082	296.582
651.0000	1.20663	0.000221824	-0.0121165	296.591
650.5000	1.0632	0.000228547	-0.0100081	296.623
650.0000	1.5441	0.000235987	-0.00748419	296.679
649.5000	1.51856	0.000247334	-0.00537852	296.769
649.0000	1.69542	0.000259369	-0.00303106	296.882
648.5000	1.85882	0.000241693	-0.00137287	297.039
648.0000	1.88209	0.000238699	0.000503673	297.208
647.5000	1.75732	0.000248922	0.00217756	297.383
647.0000	1.41812	0.000248989	0.00321239	297.57
646.5000	1.72061	0.00025997	0.00404758	297.759
646.0000	1.8372	0.000259257	0.00553351	297.928
645.5000	1.71504	0.000255587	0.00611866	298.084
645.0000	1.4568	0.000257333	0.00543704	298.216
644.5000	1.5278	0.000273719	0.00501275	298.326
644.0000	1.44898	0.000277225	0.00478825	298.417
643.5000	1.27528	0.000250735	0.00397461	298.465
643.0000	1.38737	0.000257091	0.00331104	298.498
642.5000	1.73879	0.000276498	0.00264059	298.503
642.0000	1.91695	0.000296895	0.00230382	298.502
641.5000	1.82831	0.000285395	0.00185355	298.483
641.0000	1.5788	0.000271444	0.00167857	298.443
640.5000	1.30819	0.00028849	0.0018466	298.385
640.0000	1.2348	0.000304847	0.00229767	298.321
639.5000	1.21886	0.000298268	0.00316948	298.255
639.0000	1.13726	0.000285606	0.00372118	298.173
638.5000	1.15264	0.000270671	0.00468071	298.078
638.0000	1.04495	0.000270974	0.0053328	298.007
637.5000	1.07308	0.000279894	0.005644	297.921
637.0000	1.152	0.000276076	0.00692893	297.843
636.5000	1.21804	0.000254334	0.00791402	297.765
636.0000	1.26863	0.000235605	0.00831168	297.699
635.5000	1.4838	0.000246583	0.0089181	297.644
635.0000	1.54358	0.000257596	0.00985496	297.584
634.5000	1.20805	0.000233688	0.0107693	297.536
634.0000	0.912341	0.000230628	0.0115102	297.483
633.5000	0.928791	0.000226263	0.0119045	297.436
633.0000	0.993804	0.000237617	0.0127953	297.389
632.5000	0.977757	0.000234889	0.0130604	297.345
632.0000	1.30782	0.000242737	0.0133227	297.3
631.5000	1.2833	0.000248127	0.0139341	297.26
631.0000	1.45614	0.000265047	0.0143003	297.203
630.5000	1.52317	0.000277	0.0147595	297.155
630.0000	1.31613	0.000296162	0.0152534	297.104
629.5000	1.33989	0.000284669	0.0158045	297.044
629.0000	1.3016	0.00030831	0.0162228	296.995
628.5000	1.20147	0.000286957	0.0164455	296.946
628.0000	1.17623	0.000296916	0.0168821	296.891
627.5000	1.14865	0.000328147	0.0174796	296.818
627.0000	0.892474	0.000313334	0.0176204	296.752
626.5000	0.839214	0.000309571	0.0175044	296.691
626.0000	0.932721	0.000318332	0.0175005	296.632
625.5000	0.88881	0.000330927	0.0182687	296.587
625.0000	0.941304	0.000330414	0.0191799	296.549
624.5000	1.02248	0.000337298	0.0201296	296.517
624.0000	0.927099	0.00034891	0.0209877	296.497
623.5000	0.825962	0.000353252	0.0219293	296.49
623.0000	0.916497	0.000344084	0.0228511	296.496
622.5000	1.01037	0.000334504	0.0239765	296.518
622.0000	1.08903	0.000343877	0.0247106	296.54
621.5000	1.26304	0.000332088	0.0255874	296.582
621.0000	1.25262	0.000333417	0.0265703	296.638
620.5000	1.28882	0.000322248	0.0271942	296.697
620.0000	1.4584	0.000339946	0.0276655	296.764
619.5000	1.53336	0.000329896	0.0284777	296.853
619.0000	1.59719	0.000296241	0.029767	296.961
618.5000	1.79418	0.000294453	0.0315279	297.089
618.0000	1.53083	0.000287992	0.0332659	297.217
617.5000	1.66276	0.000296119	0.0340227	297.354
617.0000	1.568	0.000309931	0.0344331	297.491
616.5000	1.59121	0.000295883	0.0348748	297.626
616.0000	1.7878	0.000289141	0.0357019	297.755
615.5000	1.79992	0.000286453	0.0361269	297.883
615.0000	1.92759	0.000286127	0.0365216	298.017
614.5000	1.89647	0.000291304	0.0367374	298.151
614.0000	1.73174	0.00026942	0.0369478	298.281
613.5000	1.86084	0.000287927	0.0374678	298.418
613.0000	1.81979	0.000314733	0.0377303	298.547
612.5000	1.77495	0.000314604	0.038038	298.671
612.0000	1.80978	0.00031264	0.0385569	298.803
611.5000	1.69283	0.000334025	0.0393189	298.929
611.0000	1.62409	0.000326036	0.0395074	299.05
610.5000	1.70761	0.000334221	0.0396222	299.171
610.0000	1.84429	0.000329771	0.0395166	299.277
609.5000	1.81942	0.00030849	0.0400754	299.386
609.0000	1.71577	0.000278861	0.0405679	299.485
608.5000	1.73181	0.000275059	0.0413815	299.58
608.0000	1.55196	0.000278949	0.0418522	299.672
607.5000	1.35033	0.000268803	0.0418941	299.762
607.0000	1.42875	0.000270073	0.0423048	299.853
606.5000	1.23136	0.000263818	0.0428412	299.943
606.0000	1.23196	0.000292057	0.0440454	300.029
605.5000	1.04443	0.000299651	0.0449137	300.113
605.0000	0.86592	0.000302129	0.0461418	300.198
604.5000	1.0684	0.000305408	0.0472082	300.288
604.0000	0.912229	0.000311055	0.0483915	300.362
603.5000	0.862072	0.000296573	0.0496632	300.429
603.0000	1.07726	0.000298003	0.0505618	300.499
602.5000	0.989626	0.000312838	0.0519378	300.569
602.0000	1.0879	0.00031448	0.0534263	300.632
601.5000	0.896611	0.000326949	0.0548476	300.702
601.0000	0.864342	0.000331366	0.056197	300.764
600.5000	1.13056	0.000359285	0.0580424	300.821
600.0000	1.07348	0.000366724	0.0595661	300.872
599.5000	1.05501	0.000370882	0.0619378	300.918
599.0000	1.06447	0.0003823	0.0640488	300.973
598.5000	1.0183	0.000384776	0.0664174	300.996
598.0000	1.13335	0.000395711	0.068459	301.027
597.5000	1.23131	0.000394758	0.0703156	301.058
597.0000	1.30096	0.000377099	0.0724752	301.089
596.5000	1.36209	0.000367755	0.0748447	301.115
596.0000	1.33232	0.000393162	0.0772195	301.137
595.5000	1.20037	0.000404561	0.0795674	301.171
595.0000	1.30719	0.000400173	0.0822043	301.195
594.5000	1.3968	0.00040574	0.0849414	301.228
594.0000	1.6569	0.000423412	0.0872685	301.274
593.5000	1.78253	0.000416132	0.0900392	301.307
593.0000	1.91475	0.000432521	0.0934206	301.367
592.5000	1.89786	0.000427519	0.0962545	301.44
592.0000	1.84132	0.000433476	0.099111	301.537
591.5000	1.79863	0.000442844	0.101581	301.627
591.0000	1.69789	0.000453116	0.104494	301.714
590.5000	1.73899	0.000452511	0.107577	301.858
590.0000	1.688	0.000445944	0.110898	302.015
589.5000	1.50352	0.000433378	0.114482	302.183
589.0000	1.40247	0.000437669	0.118119	302.36
588.5000	1.40119	0.000439001	0.121615	302.549
588.0000	1.38466	0.000438327	0.125661	302.776
587.5000	1.44162	0.000433169	0.129949	303.041
587.0000	1.28638	0.000433006	0.134309	303.349
586.5000	1.17477	0.000416176	0.138536	303.654
586.0000	0.851785	0.000424342	0.143428	303.973
585.5000	0.804119	0.000425151	0.148049	304.318
585.0000	0.73861	0.000424661	0.152681	304.68
584.5000	0.641731	0.000436122	0.157283	305.04
584.0000	0.557347	0.000451368	0.162686	305.454
583.5000	0.518631	0.000456304	0.168479	305.902
583.0000	0.245182	0.000460274	0.175029	306.403
582.5000	0.423726	0.000462687	0.181486	306.934
582.0000	0.335857	0.000479726	0.187959	307.464
581.5000	0.264868	0.000506732	0.194923	308.047
581.0000	0.0552564	0.000513855	0.202503	308.665
580.5000	-0.0133046	0.00051405	0.210493	309.329
580.0000	-0.175746	0.000528614	0.21816	309.983
579.5000	-0.453401	0.000534658	0.226004	310.669
579.0000	-0.739919	0.000549002	0.234263	311.385
578.5000	-0.804815	0.00057763	0.243144	312.123
578.0000	-0.947605	0.000592528	0.252065	312.895
577.5000	-1.02855	0.000607971	0.261335	313.761
577.0000	-1.50723	0.000625235	0.271364	314.616
576.5000	-1.67546	0.000641087	0.282317	315.558
576.0000	-1.76264	0.000647292	0.293309	316.513
575.5000	-2.10508	0.000634444	0.304893	317.513
575.0000	-2.22687	0.000626387	0.31551	318.477
574.5000	-2.4898	0.000647147	0.327507	319.549
574.0000	-2.83451	0.000633112	0.339668	320.611
573.5000	-3.0716	0.000630276	0.352221	321.726
573.0000	-3.40266	0.000636594	0.365006	322.915
572.5000	-3.63262	0.000639255	0.377199	324.057
572.0000	-4.17809	0.000639202	0.391107	325.381
571.5000	-4.40491	0.000654267	0.405182	326.702
571.0000	-4.54993	0.000657447	0.420682	328.112
570.5000	-4.68219	0.000664734	0.436194	329.583
570.0000	-4.91693	0.000686988	0.45122	331.023
569.5000	-5.67805	0.000686906	0.467616	332.543
569.0000	-6.09287	0.000690486	0.484003	334.063
568.5000	-6.60972	0.000693879	0.499407	335.556
568.0000	-7.03424	0.00068594	0.51503	337.105
567.5000	-7.60766	0.000700169	0.531042	338.692
567.0000	-7.93351	0.000738591	0.546767	340.216
566.5000	-8.25585	0.000726165	0.562267	341.703
566.0000	-8.52101	0.000746531	0.577543	343.171
565.5000	-8.74957	0.000776828	0.592291	344.625
565.0000	-9.01509	0.000775864	0.606899	346.034
564.5000	-9.29721	0.000780526	0.621468	347.436
564.0000	-9.46216	0.000789192	0.635138	348.718
563.5000	-9.84912	0.000765472	0.647804	349.933
563.0000	-10.2375	0.000780036	0.660427	351.177
562.5000	-10.4988	0.000782225	0.672131	352.303
562.0000	-10.9302	0.000769153	0.683195	353.359
561.5000	-11.237	0.000738495	0.695197	354.465
561.0000	-11.1573	0.000775362	0.706126	355.502
560.5000	-10.9955	0.000787268	0.716135	356.454
560.0000	-11.1349	0.000795914	0.725745	357.335
559.5000	-10.9608	0.00081414	0.734654	358.094
559.0000	-10.6143	0.000815595	0.742068	358.719
558.5000	-10.77	0.00080825	0.748296	359.255
558.0000	-10.5795	0.00081877	0.75339	359.679
557.5000	-10.6459	0.000818109	0.758164	360.033
557.0000	-10.4099	0.000797575	0.762271	360.299
556.5000	-10.5064	0.000800423	0.765217	360.491
556.0000	-10.2433	0.00080158	0.766811	360.591
555.5000	-10.0254	0.000806794	0.768163	360.628
555.0000	-9.61302	0.000803785	0.768829	360.568
554.5000	-9.38933	0.000800993	0.769025	360.415
554.0000	-8.76154	0.000810482	0.767984	360.189
553.5000	-8.55514	0.000814008	0.766379	359.899
553.0000	-8.19387	0.000812318	0.764311	359.57
552.5000	-8.29361	0.000774599	0.762427	359.207
552.0000	-8.15488	0.000754146	0.759942	358.772
551.5000	-8.38205	0.000722333	0.757275	358.332
551.0000	-8.06327	0.000715705	0.753915	357.862
550.5000	-7.5876	0.000712429	0.750374	357.355
550.0000	-7.62433	0.000719542	0.74683	356.819
549.5000	-7.38894	0.00070074	0.743444	356.28
549.0000	-7.14409	0.000695492	0.739496	355.746
548.5000	-6.93321	0.000715339	0.735575	355.227
548.0000	-6.58852	0.000723146	0.732597	354.683
547.5000	-6.79242	0.000726001	0.729868	354.191
547.0000	-6.78946	0.000723626	0.727161	353.681
546.5000	-6.88218	0.000731325	0.724458	353.238
546.0000	-6.76922	0.000722332	0.721479	352.841
545.5000	-6.78373	0.000721065	0.719763	352.466
545.0000	-6.65001	0.000704162	0.718418	352.179
544.5000	-6.55638	0.000688736	0.717323	351.908
544.0000	-6.47951	0.000700132	0.716238	351.686
543.5000	-6.48598	0.000731504	0.715723	351.512
543.0000	-6.42632	0.000721878	0.715787	351.383
542.5000	-6.69388	0.000717219	0.716469	351.29
542.0000	-6.80277	0.000696043	0.717249	351.244
541.5000	-7.08188	0.000669748	0.718472	351.265
541.0000	-6.94736	0.000675997	0.719996	351.342
540.5000	-7.10915	0.000661388	0.722757	351.476
540.0000	-6.89216	0.000661669	0.72591	351.636
539.5000	-6.87098	0.000677828	0.729223	351.868
539.0000	-6.71877	0.000698404	0.732906	352.177
538.5000	-6.64885	0.000681284	0.737269	352.538
538.0000	-6.84394	0.000685031	0.742281	352.924
537.5000	-7.44098	0.000703778	0.747753	353.372
537.0000	-7.28373	0.000727737	0.753576	353.882
536.5000	-7.44761	0.000732553	0.759732	354.413
536.0000	-7.37538	0.000764672	0.766735	355.017
535.5000	-7.19641	0.000777609	0.773853	355.644
535.0000	-7.01649	0.000805045	0.781699	356.331
534.5000	-6.86099	0.00079418	0.789379	357.015
534.0000	-6.65396	0.000824936	0.797567	357.758
533.5000	-6.75018	0.000808421	0.805967	358.55
533.0000	-7.09028	0.000785872	0.814082	359.323
532.5000	-7.32784	0.000782701	0.822518	360.14
532.0000	-7.82186	0.000777009	0.831628	361.018
531.5000	-7.96708	0.000780558	0.841051	361.916
531.0000	-7.83787	0.00078056	0.851501	362.862
530.5000	-7.67105	0.000778982	0.86134	363.787
530.0000	-7.64027	0.000772696	0.87146	364.763
529.5000	-7.51983	0.000768238	0.881485	365.731
529.0000	-7.61635	0.000777269	0.891077	366.623
528.5000	-7.76663	0.000763296	0.900385	367.509
528.0000	-7.80618	0.000772253	0.90931	368.357
527.5000	-7.73155	0.000751303	0.918672	369.226
527.0000	-8.14313	0.000679524	0.92868	370.155
526.5000	-8.0512	0.000649447	0.937835	371.03
526.0000	-8.19341	0.000651448	0.947457	371.923
525.5000	-8.21076	0.00066272	0.956883	372.794
525.0000	-7.73425	0.000700441	0.965994	373.636
524.5000	-7.73179	0.000710785	0.974451	374.393
524.0000	-7.42392	0.000700003	0.982143	375.072
523.5000	-7.06546	0.000674466	0.989754	375.778
523.0000	-6.95633	0.000669236	0.99684	376.426
522.5000	-6.72115	0.000688831	1.00316	377.019
522.0000	-6.69643	0.000666715	1.00976	377.612
521.5000	-6.73225	0.000708646	1.01626	378.169
521.0000	-6.5142	0.000700635	1.0222	378.684
520.5000	-6.27596	0.000681386	1.02786	379.17
520.0000	-5.44367	0.000668035	1.03283	379.589
519.5000	-4.91212	0.000659962	1.03785	379.983
519.0000	-4.73012	0.00064467	1.04243	380.358
518.5000	-4.39401	0.000689399	1.04635	380.694
518.0000	-4.49012	0.000678385	1.05079	381.051
517.5000	-4.5085	0.000682417	1.05521	381.396
517.0000	-3.81719	0.000683817	1.05942	381.69
516.5000	-3.54077	0.00067967	1.06354	381.97
516.0000	-3.22713	0.000682822	1.06729	382.233
515.5000	-3.08036	0.000686618	1.07047	382.484
515.0000	-2.67779	0.0007107	1.07353	382.709
514.5000	-2.41964	0.000703129	1.07654	382.944
514.0000	-2.26326	0.000680417	1.0793	383.14
513.5000	-2.33794	0.000648279	1.08209	383.328
513.0000	-2.158	0.00061703	1.08457	383.524
512.5000	-1.80703	0.000634729	1.08761	383.755
512.0000	-1.975	0.000656858	1.09052	383.964
511.5000	-2.3191	0.000645576	1.09299	384.165
511.0000	-2.4056	0.0006759	1.09558	384.36
510.5000	-2.03478	0.0006608	1.09814	384.523
510.0000	-1.32975	0.000660682	1.10066	384.686
509.5000	-0.98939	0.00061438	1.10288	384.83
509.0000	-0.485774	0.000626313	1.105	384.979
508.5000	-0.362361	0.000607602	1.10708	385.111
508.0000	-0.230513	0.000613447	1.10956	385.252
507.5000	0.0112762	0.000649129	1.11196	385.374
507.0000	-0.306162	0.000629673	1.11449	385.506
506.5000	-0.47086	0.000628954	1.11688	385.626
506.0000	-0.0647593	0.000641679	1.11882	385.741
505.5000	0.139891	0.00061431	1.12087	385.868
505.0000	0.270065	0.000595507	1.12303	385.998
504.5000	0.748568	0.000597854	1.12509	386.101
504.0000	0.920221	0.000577319	1.12692	386.186
503.5000	1.40544	0.000569932	1.12846	386.242
503.0000	1.33509	0.000581329	1.13005	386.285
502.5000	1.48774	0.000562414	1.13125	386.306
502.0000	1.09965	0.000571958	1.13236	386.323
501.5000	0.933891	0.000596661	1.13335	386.305
501.0000	0.782344	0.000603757	1.13433	386.272
500.5000	0.483953	0.000569891	1.13518	386.197
500.0000	0.609345	0.000562063	1.13567	386.061
499.5000	0.91944	0.000559621	1.13512	385.832
499.0000	0.845174	0.000533789	1.13412	385.472
498.5000	1.26698	0.00051585	1.13269	384.975
498.0000	1.45795	0.000523695	1.13112	384.364
497.5000	1.43894	0.000502783	1.12977	383.6
497.0000	1.42602	0.000494872	1.12912	382.813
496.5000	1.64581	0.000511488	1.12977	382.1
496.0000	1.74394	0.000478542	1.13183	381.609
495.5000	2.02402	0.000448709	1.13399	381.273
495.0000	1.66675	0.000443203	1.13468	381.004
494.5000	1.79985	0.000434833	1.13436	380.736
494.0000	2.28406	0.000440771	1.13362	380.469
493.5000	2.35932	0.000417165	1.13269	380.18
493.0000	2.2845	0.000401102	1.13183	379.912
492.5000	2.50782	0.000416148	1.13095	379.645
492.0000	2.54502	0.000406174	1.12971	379.353
491.5000	2.57848	0.000357622	1.12851	379.114
491.0000	2.59257	0.000353195	1.12734	378.878
490.5000	2.69309	0.000368077	1.12609	378.675
490.0000	2.69821	0.000371842	1.12463	378.504
489.5000	3.16334	0.000347602	1.12293	378.372
489.0000	3.19511	0.000322255	1.12039	378.175
488.5000	3.57103	0.000318144	1.11642	377.832
488.0000	3.41537	0.000310968	1.11066	377.207
487.5000	3.30317	0.00031611	1.10446	376.358
487.0000	3.6109	0.000312886	1.09953	375.441
486.5000	3.88786	0.000299327	1.09436	374.367
486.0000	3.99692	0.00029	1.08999	373.331
485.5000	3.88029	0.000275987	1.08742	372.378
485.0000	4.1195	0.000275043	1.08577	371.53
484.5000	4.18892	0.000258279	1.0833	370.785
484.0000	4.04601	0.000232705	1.07979	370.069
483.5000	4.68727	0.000219916	1.07608	369.425
483.0000	5.20605	0.000229831	1.07157	368.781
482.5000	5.94667	0.000223332	1.06693	368.217
482.0000	6.40664	0.000211432	1.06207	367.692
481.5000	6.18862	0.0001824	1.05718	367.162
481.0000	6.55321	0.000184854	1.05239	366.65
480.5000	6.76181	0.000205882	1.04734	366.16
480.0000	6.32708	0.000207741	1.04177	365.657
479.5000	6.62677	0.000214881	1.03536	365.071
479.0000	6.51015	0.000178142	1.02625	364.22
478.5000	6.50458	0.000181998	1.01677	363.135
478.0000	6.50166	0.000173923	1.00991	361.969
477.5000	6.48771	0.000188187	1.00736	361.103
477.0000	6.47471	0.000184472	1.00415	360.358
476.5000	6.81149	0.000190296	0.99571	359.326
476.0000	7.16973	0.000184451	0.985722	358.064
475.5000	7.42526	0.000171713	0.975576	356.574
475.0000	7.06861	0.000185644	0.965586	354.884
474.5000	6.9518	0.000202171	0.956844	353.145
474.0000	6.60724	0.000180896	0.948461	351.263
473.5000	6.45143	0.000211604	0.939196	349.109
473.0000	6.46991	0.000226426	0.9303	346.837
472.5000	6.12156	0.000221658	0.923799	344.592
472.0000	6.15994	0.000239378	0.921023	342.827
471.5000	6.28622	0.000228733	0.918918	341.414
471.0000	6.11024	0.000256443	0.917122	340.571
470.5000	6.00816	0.000248798	0.915663	340.074
470.0000	6.01403	0.000243799	0.912449	339.787
469.5000	5.87084	0.000249567	0.904223	339.286
469.0000	5.92229	0.000228317	0.890462	338.251
468.5000	5.98145	0.000231303	0.878191	336.956
468.0000	5.51863	0.000224206	0.869648	335.708
467.5000	5.07982	0.000252074	0.863683	334.696
467.0000	5.16342	0.000261789	0.859428	333.962
466.5000	4.90753	0.000247893	0.855485	333.434
466.0000	4.75181	0.000252729	0.850596	333.082
465.5000	4.76741	0.000221657	0.845332	332.953
465.0000	4.63274	0.000227385	0.839253	333.057
464.5000	4.50589	0.000232225	0.830296	333.178
464.0000	4.36124	0.000239815	0.817554	332.989
463.5000	4.25759	0.00024896	0.803081	332.411
463.0000	4.07669	0.000268655	0.789924	331.591
462.5000	4.24796	0.000270448	0.779107	330.682
462.0000	3.98821	0.000281117	0.770076	329.784
461.5000	4.23411	0.000278592	0.762087	329.017
461.0000	4.19806	0.000283285	0.754458	328.403
460.5000	4.38284	0.000294858	0.746282	327.893
460.0000	4.37741	0.000323515	0.737949	327.455
459.5000	4.21495	0.000314452	0.728864	327.036
459.0000	4.18892	0.000317429	0.717979	326.484
458.5000	4.18457	0.000311949	0.706585	325.837
458.0000	4.36447	0.000324974	0.694269	324.989
457.5000	4.29953	0.0003307	0.681836	323.919
457.0000	4.17429	0.000323138	0.670745	322.747
456.5000	4.10465	0.000331035	0.661967	321.682
456.0000	4.16122	0.000338762	0.65191	320.608
455.5000	4.09225	0.000337752	0.638905	319.27
455.0000	3.99508	0.000356216	0.627691	317.925
454.5000	3.85614	0.000337313	0.619714	316.766
454.0000	3.82117	0.000362445	0.612227	315.833
453.5000	3.844	0.000374576	0.602596	315.001
453.0000	3.66202	0.000376622	0.592363	314.184
452.5000	3.35763	0.000392856	0.582315	313.341
452.0000	2.91387	0.000410526	0.57253	312.462
451.5000	3.04565	0.000406985	0.562287	311.544
451.0000	3.21123	0.000417821	0.552482	310.661
450.5000	3.27566	0.000435071	0.542302	309.727
450.0000	3.19096	0.000447646	0.533458	308.874
449.5000	3.03276	0.000456515	0.526136	308.204
449.0000	3.03417	0.000474129	0.519093	307.687
448.5000	2.78427	0.000479446	0.509459	307.072
448.0000	2.82522	0.000481865	0.499549	306.369
447.5000	2.7137	0.000481493	0.49257	305.815
447.0000	2.3036	0.000470329	0.487613	305.52
446.5000	2.33823	0.000470151	0.480639	305.256
446.0000	2.32932	0.000473101	0.469482	304.726
445.5000	2.20162	0.000475803	0.45863	303.95
445.0000	2.24355	0.000491337	0.449657	303.078
444.5000	2.20475	0.000488635	0.441068	302.166
444.0000	2.30191	0.000485974	0.432759	301.255
443.5000	2.26839	0.000488333	0.424375	300.269
443.0000	2.16229	0.000498256	0.417557	299.42
442.5000	2.01432	0.000504195	0.411278	298.631
442.0000	1.75681	0.000503483	0.405475	297.961
441.5000	1.73572	0.000512315	0.398798	297.242
441.0000	1.68199	0.000527829	0.392506	296.578
440.5000	1.41983	0.000531753	0.386356	295.93
440.0000	1.53033	0.00054159	0.379859	295.256
439.5000	1.57817	0.000560703	0.373071	294.562
439.0000	1.58908	0.000579259	0.365868	293.836
438.5000	1.7779	0.000601839	0.358222	293.092
438.0000	1.5799	0.000617757	0.350611	292.373
437.5000	1.56584	0.000609726	0.34342	291.683
437.0000	1.5435	0.000594104	0.335864	290.98
436.5000	1.64411	0.000592511	0.329891	290.39
436.0000	1.41584	0.000616123	0.324532	289.875
435.5000	1.33289	0.000622308	0.318603	289.372
435.0000	1.41492	0.000637999	0.312226	288.866
434.5000	1.3868	0.000640256	0.305626	288.343
434.0000	1.34851	0.000641206	0.299164	287.799
433.5000	1.20995	0.000645963	0.293152	287.268
433.0000	1.29177	0.000647346	0.287161	286.688
432.5000	1.3203	0.000639159	0.281491	286.133
432.0000	1.33433	0.000643403	0.275503	285.554
431.5000	1.43079	0.000642972	0.269568	284.971
431.0000	1.54263	0.000637365	0.263888	284.397
430.5000	1.41198	0.000636974	0.25838	283.829
430.0000	1.31825	0.000629289	0.253341	283.29
429.5000	1.42759	0.000635716	0.247988	282.728
429.0000	1.37072	0.000642913	0.242623	282.16
428.5000	1.27986	0.000654904	0.237179	281.594
428.0000	1.20767	0.000657779	0.231471	281.03
427.5000	1.24296	0.000640845	0.22664	280.525
427.0000	1.24533	0.000644733	0.222024	280.03
426.5000	1.21728	0.000635771	0.217363	279.522
426.0000	1.16861	0.000640659	0.212526	278.98
425.5000	1.26981	0.00063488	0.207874	278.416
425.0000	1.13757	0.000626937	0.203127	277.835
424.5000	0.963362	0.000621278	0.198677	277.248
424.0000	1.03372	0.000620569	0.194696	276.687
423.5000	0.911924	0.000604042	0.191467	276.196
423.0000	0.632528	0.000603084	0.187923	275.743
422.5000	0.551436	0.000594331	0.184174	275.329
422.0000	0.452996	0.000593891	0.180238	274.928
421.5000	0.543071	0.000597599	0.17634	274.54
421.0000	0.699733	0.000595116	0.172897	274.188
420.5000	0.715933	0.00060156	0.16942	273.837
420.0000	0.837775	0.000601956	0.165926	273.469
419.5000	0.78186	0.00060126	0.162432	273.084
419.0000	0.677518	0.000599077	0.159066	272.721
418.5000	0.71878	0.000594637	0.155839	272.406
418.0000	0.498726	0.000600372	0.152975	272.101
417.5000	0.503038	0.000606276	0.149937	271.799
417.0000	0.42238	0.000599308	0.147311	271.521
416.5000	0.440016	0.000597162	0.14495	271.301
416.0000	0.490088	0.00059939	0.142314	271.12
415.5000	0.496258	0.000614432	0.139094	270.902
415.0000	0.570053	0.000620228	0.135891	270.65
414.5000	0.643163	0.000626333	0.133243	270.374
414.0000	0.61558	0.000643363	0.131126	270.103
413.5000	0.51379	0.000647885	0.129086	269.82
413.0000	0.319106	0.000647074	0.127171	269.563
412.5000	0.25853	0.000647919	0.125401	269.341
412.0000	0.30458	0.000657482	0.123729	269.138
411.5000	0.334594	0.000663932	0.121746	268.93
411.0000	0.30014	0.000672783	0.119863	268.735
410.5000	0.310871	0.000670731	0.118246	268.556
410.0000	0.275371	0.000675473	0.11675	268.388
409.5000	0.323845	0.000675486	0.115384	268.243
409.0000	0.335967	0.000674259	0.11405	268.119
408.5000	0.370475	0.000679845	0.112275	267.984
408.0000	0.412645	0.000687798	0.110519	267.864
407.5000	0.465455	0.000687548	0.10853	267.718
407.0000	0.488823	0.000679044	0.106829	267.571
406.5000	0.464187	0.000674895	0.105317	267.426
406.0000	0.527009	0.000674168	0.103751	267.272
405.5000	0.57282	0.000666551	0.102135	267.12
405.0000	0.566409	0.000654732	0.100493	266.943
404.5000	0.631725	0.000662527	0.0990058	266.76
404.0000	0.532668	0.000650571	0.0977475	266.542
403.5000	0.491583	0.000655526	0.0964438	266.298
403.0000	0.514888	0.000645351	0.0956351	266.053
402.5000	0.55608	0.000648773	0.0944447	265.791
402.0000	0.455905	0.00064831	0.0937949	265.548
401.5000	0.526493	0.000645445	0.0933998	265.297
401.0000	0.506392	0.00065179	0.0927612	265.064
400.5000	0.464524	0.000658899	0.0921843	264.848
400.0000	0.392686	0.000657978	0.0916357	264.666
399.5000	0.382082	0.0006518	0.0915832	264.493
399.0000	0.3652	0.000662827	0.0915873	264.357
398.5000	0.195921	0.000665107	0.0912729	264.227
398.0000	0.238856	0.000669925	0.0908978	264.116
397.5000	0.00528009	0.000662586	0.0905402	264.032
397.0000	0.0740378	0.000672302	0.0905198	263.974
396.5000	0.0975715	0.000675068	0.090293	263.945
396.0000	0.0297388	0.000671801	0.0901172	263.938
395.5000	0.114051	0.000667299	0.0897275	263.968
395.0000	-0.0324806	0.000667102	0.0894632	264.025
394.5000	-0.0311106	0.000679497	0.0894452	264.118
394.0000	-0.0732605	0.000679938	0.0895015	264.238
393.5000	-0.146834	0.000689106	0.0891794	264.368
393.0000	-0.229988	0.000671764	0.0887459	264.515
392.5000	-0.0711884	0.000685778	0.0883854	264.643
392.0000	-0.0232186	0.000672243	0.088347	264.765
391.5000	0.00663979	0.000681084	0.088408	264.861
391.0000	-0.0928149	0.000680452	0.0883915	264.952
390.5000	0.0235825	0.000676876	0.0882367	265.042
390.0000	0.0207033	0.00068055	0.0881689	265.13
389.5000	-0.0600948	0.000685988	0.0884355	265.208
389.0000	-0.0367911	0.000676485	0.0887267	265.267
388.5000	-0.0456478	0.000673193	0.0888294	265.326
388.0000	0.163912	0.000678983	0.0889707	265.395
387.5000	0.0289126	0.000680569	0.0894329	265.46
387.0000	-0.165529	0.000688211	0.0902095	265.509
386.5000	-0.114803	0.000688187	0.0909266	265.563
386.0000	-0.161022	0.000685071	0.0915904	265.596
385.5000	-0.256725	0.000678472	0.0923362	265.632
385.0000	-0.172024	0.000686568	0.0930224	265.657
384.5000	-0.195337	0.000682993	0.0938699	265.695
384.0000	-0.451799	0.000693015	0.0948576	265.732
383.5000	-0.371392	0.000710671	0.0955713	265.77
383.0000	-0.308573	0.000704452	0.0960737	265.8
382.5000	-0.243226	0.000712191	0.0968178	265.845
382.0000	-0.320383	0.000729157	0.0979227	265.883
381.5000	-0.330225	0.000721681	0.0992799	265.932
381.0000	-0.359769	0.000738645	0.100293	265.98
380.5000	-0.377099	0.000739328	0.101308	266.043
380.0000	-0.448354	0.000752283	0.102504	266.102
379.5000	-0.578259	0.000765717	0.103716	266.158
379.0000	-0.543392	0.00075048	0.104497	266.209
378.5000	-0.436822	0.000762745	0.10498	266.262
378.0000	-0.439269	0.000759128	0.105548	266.316
377.5000	-0.355007	0.000758252	0.10625	266.368
377.0000	-0.332806	0.000766962	0.106686	266.398
376.5000	-0.272323	0.000773254	0.107343	266.425
376.0000	-0.259931	0.000772068	0.107922	266.438
375.5000	-0.141175	0.000760367	0.108382	266.457
375.0000	-0.197643	0.000755952	0.108878	266.471
374.5000	-0.457489	0.00074956	0.109377	266.478
374.0000	-0.499837	0.000741864	0.109847	266.479
373.5000	-0.556138	0.000726652	0.110223	266.479
373.0000	-0.548147	0.000719901	0.110226	266.468
372.5000	-0.482497	0.000717738	0.110457	266.469
372.0000	-0.371826	0.000721163	0.110717	266.466
371.5000	-0.465836	0.00071562	0.110843	266.461
371.0000	-0.400797	0.000703855	0.111136	266.454
370.5000	-0.330221	0.00072589	0.111533	266.452
370.0000	-0.392379	0.000720567	0.111881	266.459
369.5000	-0.503214	0.000718551	0.112125	266.464
369.0000	-0.480317	0.000725485	0.112541	266.485
368.5000	-0.440124	0.000724273	0.113239	266.524
368.0000	-0.492714	0.000720474	0.113746	266.572
367.5000	-0.57353	0.000720726	0.114289	266.617
367.0000	-0.48265	0.000720825	0.115073	266.669
366.5000	-0.263574	0.00072147	0.115573	266.724
366.0000	-0.304498	0.000727719	0.116169	266.798
365.5000	-0.258896	0.000729021	0.116799	266.876
365.0000	-0.0644832	0.000735625	0.117128	266.94
364.5000	-0.130217	0.000729988	0.117877	267.02
364.0000	-0.0581195	0.000729617	0.118418	267.1
363.5000	-0.0208696	0.000737654	0.11937	267.187
363.0000	-0.0159009	0.000730496	0.120189	267.268
362.5000	-0.00823825	0.000724136	0.121164	267.374
362.0000	0.162941	0.00070284	0.121872	267.46
361.5000	0.166973	0.000712991	0.122742	267.544
361.0000	0.195198	0.000706728	0.12354	267.624
360.5000	0.156578	0.000708561	0.124087	267.702
360.0000	0.327776	0.00071217	0.124679	267.775
359.5000	0.396838	0.000706162	0.125334	267.861
359.0000	0.386144	0.000712313	0.125386	267.915
358.5000	0.394825	0.000725079	0.125419	267.976
358.0000	0.25952	0.00072593	0.125517	268.041
357.5000	0.309619	0.000741523	0.125636	268.108
357.0000	0.354725	0.000721372	0.125957	268.171
356.5000	0.282984	0.000725366	0.126599	268.234
356.0000	0.358063	0.000721005	0.126822	268.292
355.5000	0.380678	0.00071535	0.127022	268.351
355.0000	0.447461	0.000709726	0.12711	268.409
354.5000	0.542457	0.000717636	0.127242	268.473
354.0000	0.509913	0.000707263	0.127334	268.524
353.5000	0.506026	0.000714472	0.127524	268.583
353.0000	0.40903	0.000701236	0.127746	268.652
352.5000	0.342213	0.00069504	0.128047	268.726
352.0000	0.440311	0.000685876	0.128368	268.8
351.5000	0.349685	0.000684104	0.128534	268.858
351.0000	0.310489	0.000677959	0.128992	268.912
350.5000	0.429507	0.000664376	0.12977	268.984
350.0000	0.423512	0.00066367	0.130669	269.062
349.5000	0.337161	0.000651435	0.131524	269.13
349.0000	0.405167	0.000645644	0.132558	269.206
348.5000	0.177635	0.000650636	0.133665	269.281
348.0000	0.22208	0.000648965	0.134389	269.345
347.5000	0.0839921	0.000646988	0.135352	269.405
347.0000	0.0226762	0.000650417	0.136294	269.46
346.5000	-0.0986936	0.000639364	0.137043	269.515
346.0000	-0.14786	0.000642839	0.137647	269.565
345.5000	-0.206228	0.000639814	0.138639	269.633
345.0000	-0.220391	0.000627193	0.139615	269.697
344.5000	-0.0227982	0.00062576	0.140515	269.753
344.0000	0.038129	0.000608811	0.141612	269.811
343.5000	0.0191001	0.000597378	0.142397	269.864
343.0000	-0.0337839	0.000594732	0.143152	269.924
342.5000	0.123014	0.000603577	0.143877	269.994
342.0000	0.0769398	0.000602377	0.144455	270.054
341.5000	0.208573	0.000597975	0.145207	270.121
341.0000	0.408523	0.000607933	0.146066	270.179
340.5000	0.584958	0.00060331	0.14659	270.233
340.0000	0.667021	0.0005994	0.147146	270.291
339.5000	0.807202	0.000589286	0.147571	270.361
339.0000	0.876104	0.000586277	0.148282	270.432
338.5000	0.898526	0.000576855	0.149084	270.504
338.0000	0.935561	0.000580697	0.149863	270.579
337.5000	0.876954	0.000595904	0.150439	270.644
337.0000	0.921544	0.000593642	0.151008	270.718
336.5000	0.90986	0.000594308	0.15177	270.79
336.0000	1.01029	0.000594311	0.152589	270.878
335.5000	1.13501	0.000609318	0.153458	270.97
335.0000	1.03601	0.000609652	0.154255	271.055
334.5000	1.10746	0.000597202	0.155064	271.151
334.0000	1.13539	0.000580245	0.155964	271.243
333.5000	1.05562	0.00058149	0.157283	271.341
333.0000	0.871689	0.000565899	0.15829	271.442
332.5000	0.656124	0.00053554	0.15906	271.549
332.0000	0.757661	0.000534463	0.159806	271.647
331.5000	0.804645	0.000529643	0.160842	271.751
331.0000	0.780514	0.000532734	0.162021	271.864
330.5000	0.798509	0.000529664	0.162834	271.965
330.0000	0.666678	0.000520855	0.16381	272.072
329.5000	0.755814	0.000517212	0.165029	272.2
329.0000	0.802725	0.000475258	0.166079	272.324
328.5000	0.812229	0.000471897	0.16719	272.442
328.0000	0.84088	0.000464535	0.168023	272.545
327.5000	0.660711	0.000448947	0.168996	272.643
327.0000	0.616988	0.000434862	0.170003	272.72
326.5000	0.585506	0.000423859	0.171395	272.83
326.0000	0.403014	0.000415149	0.173045	272.959
325.5000	0.274201	0.000416256	0.174529	273.093
325.0000	0.330573	0.000395344	0.175532	273.215
324.5000	0.517439	0.000388471	0.176806	273.348
324.0000	0.571489	0.00038608	0.178409	273.493
323.5000	0.365352	0.000377644	0.180229	273.648
323.0000	0.222948	0.00036636	0.181804	273.804
322.5000	0.0451448	0.000348565	0.183308	273.959
322.0000	0.141143	0.000343569	0.18479	274.123
321.5000	0.0535711	0.000337062	0.186488	274.286
321.0000	0.00507742	0.000313261	0.188176	274.444
320.5000	0.0144429	0.000319185	0.189992	274.609
320.0000	0.0717844	0.000333219	0.191599	274.769
319.5000	0.058923	0.000320742	0.193343	274.94
319.0000	0.0963691	0.000328388	0.195015	275.129
318.5000	-0.0298047	0.000313694	0.196769	275.335
318.0000	-0.111326	0.000299339	0.198246	275.511
317.5000	0.0829059	0.000280595	0.199625	275.659
317.0000	0.0875119	0.000276806	0.20147	275.823
316.5000	-0.0590484	0.000272187	0.203306	275.972
316.0000	-0.0323302	0.000256627	0.205327	276.141
315.5000	-0.0150354	0.000243071	0.206968	276.308
315.0000	0.155503	0.000244543	0.208644	276.49
314.5000	0.190496	0.000240724	0.21047	276.686
314.0000	0.359661	0.000238938	0.212401	276.881
313.5000	0.425725	0.000233079	0.214436	277.082
313.0000	0.581767	0.000235709	0.216437	277.291
312.5000	0.622575	0.000229026	0.218274	277.496
312.0000	0.546938	0.000208232	0.220447	277.714
311.5000	0.674501	0.000182944	0.222411	277.924
311.0000	0.867137	0.000182891	0.224901	278.16
310.5000	0.871279	0.000169873	0.227172	278.416
310.0000	0.923305	0.000172187	0.22959	278.665
309.5000	1.03633	0.0001543	0.23239	278.945
309.0000	1.12193	0.000149617	0.235456	279.257
308.5000	1.28735	0.000144169	0.238397	279.586
308.0000	1.35701	0.000141863	0.241073	279.886
307.5000	1.28234	0.000133291	0.244319	280.232
307.0000	1.32296	0.000132862	0.247791	280.579
306.5000	1.20982	0.000117864	0.251699	280.968
306.0000	1.53354	0.000101974	0.255633	281.345
305.5000	1.55032	9.85085E-005	0.259932	281.785
305.0000	1.63055	8.19674E-005	0.264293	282.218
304.5000	1.63175	7.67216E-005	0.26954	282.72
304.0000	1.72885	8.50078E-005	0.275265	283.258
303.5000	1.70296	8.10752E-005	0.281154	283.813
303.0000	1.63426	7.61253E-005	0.28745	284.429
302.5000	1.5936	6.36243E-005	0.293945	285.069
302.0000	1.56768	5.43976E-005	0.301	285.744
301.5000	1.58165	6.16339E-005	0.308385	286.447
301.0000	1.75217	6.36206E-005	0.31578	287.173
300.5000	1.7486	6.86E-005	0.32267	287.852
300.0000	1.66145	5.20885E-005	0.331272	288.667
299.5000	1.85564	3.49204E-005	0.339591	289.469
299.0000	2.02291	3.23152E-005	0.347644	290.261
298.5000	2.13843	2.23955E-005	0.355941	291.09
298.0000	2.30058	1.21362E-005	0.363891	291.876
297.5000	2.28035	2.27293E-006	0.372345	292.706
297.0000	2.23808	3.04521E-006	0.380271	293.443
296.5000	2.14148	-4.3551E-006	0.387469	294.133
296.0000	2.09216	-9.41778E-006	0.394631	294.824
295.5000	2.0724	-1.79335E-005	0.401726	295.484
295.0000	2.16772	-2.95618E-006	0.408323	296.08
294.5000	2.32139	-8.2295E-007	0.414809	296.68
294.0000	2.19834	3.15983E-006	0.421123	297.305
293.5000	2.33378	4.14007E-006	0.4262	297.827
293.0000	2.37262	2.46796E-005	0.43133	298.348
292.5000	2.41351	4.27457E-005	0.43625	298.87
292.0000	2.76217	7.24497E-005	0.440436	299.335
291.5000	2.72564	6.70428E-005	0.444477	299.773
291.0000	2.53654	8.82597E-005	0.44842	300.2
290.5000	2.21544	8.07232E-005	0.45256	300.64
290.0000	2.23487	0.00010211	0.456543	301.046
289.5000	2.16575	0.000121989	0.459828	301.414
289.0000	2.08313	0.000142321	0.46299	301.776
288.5000	2.07627	0.000145245	0.466231	302.159
288.0000	2.10769	0.000167646	0.469443	302.543
287.5000	2.24627	0.000197319	0.472929	302.964
287.0000	2.31821	0.00020324	0.476237	303.41
286.5000	2.28289	0.000226692	0.479157	303.838
286.0000	2.25801	0.000241785	0.482189	304.241
285.5000	2.16374	0.000261965	0.485422	304.615
285.0000	2.10008	0.00027242	0.488897	305.017
284.5000	1.9553	0.000271303	0.492171	305.4
284.0000	1.74629	0.000259441	0.495768	305.815
283.5000	1.53146	0.000267013	0.49955	306.236
283.0000	1.40887	0.000298799	0.503178	306.647
282.5000	1.30556	0.000336855	0.507262	307.101
282.0000	1.24994	0.000355211	0.511195	307.572
281.5000	1.30674	0.000373218	0.515065	308.041
281.0000	1.37621	0.000397227	0.519212	308.518
280.5000	1.37021	0.000430392	0.523868	309.069
280.0000	1.37767	0.000467192	0.528868	309.652
279.5000	1.32217	0.000479333	0.533926	310.253
279.0000	1.14104	0.000485894	0.538975	310.861
278.5000	1.19964	0.000521694	0.544965	311.558
278.0000	1.15502	0.000528622	0.552094	312.331
277.5000	1.16952	0.000556938	0.558811	313.063
277.0000	1.12925	0.000585168	0.566253	313.898
276.5000	1.19786	0.000628816	0.574082	314.789
276.0000	1.37528	0.000647204	0.58155	315.63
275.5000	1.57493	0.000689997	0.590538	316.61
275.0000	1.55481	0.000712183	0.600343	317.681
274.5000	1.63885	0.000732154	0.610481	318.81
274.0000	1.70582	0.000750457	0.621597	320.076
273.5000	1.73143	0.000770828	0.632576	321.29
273.0000	1.67032	0.000776539	0.644792	322.637
272.5000	1.59361	0.000813282	0.657765	324.077
272.0000	1.56454	0.000826676	0.671318	325.599
271.5000	1.5902	0.000850193	0.686489	327.304
271.0000	1.66919	0.00086926	0.702179	329.034
270.5000	2.07143	0.000886054	0.718752	330.849
270.0000	2.21591	0.000914591	0.735858	332.764
269.5000	2.28686	0.000962677	0.753814	334.814
269.0000	2.13225	0.000968894	0.772009	336.883
268.5000	2.41234	0.000973898	0.792448	339.199
268.0000	2.48222	0.000982591	0.813981	341.637
267.5000	2.25726	0.000982218	0.836674	344.225
267.0000	1.96495	0.0010215	0.861347	347.088
266.5000	2.18552	0.00104985	0.886817	350.082
266.0000	1.99789	0.00109277	0.911273	352.921
265.5000	2.22162	0.00110172	0.938098	356.022
265.0000	2.45683	0.00112175	0.966429	359.367
264.5000	2.68062	0.00111576	0.993612	362.628
264.0000	2.80374	0.00112365	1.02097	365.937
263.5000	2.98637	0.00113503	1.04988	369.43
263.0000	2.52089	0.00114521	1.07602	372.618
262.5000	2.24733	0.00118311	1.1043	376.142
262.0000	2.01045	0.00119103	1.13056	379.49
261.5000	2.20974	0.00116685	1.15686	382.837
261.0000	2.00246	0.00116907	1.18174	385.982
260.5000	1.90193	0.00121479	1.20761	389.297
260.0000	1.96137	0.00123651	1.23301	392.6
259.5000	1.99985	0.00129069	1.25799	395.895
259.0000	2.47658	0.00126875	1.28244	399.179
258.5000	2.37321	0.00125638	1.30707	402.471
258.0000	2.19404	0.0012409	1.33147	405.758
257.5000	2.73886	0.00123547	1.35449	408.882
257.0000	2.05047	0.001242	1.3788	412.208
256.5000	2.02712	0.00122965	1.40187	415.377
256.0000	1.81795	0.00123732	1.42663	418.777
255.5000	1.6607	0.00117341	1.45172	422.227
255.0000	1.68446	0.00115692	1.47687	425.721
254.5000	1.63162	0.00112414	1.50097	429.092
254.0000	1.41754	0.00113796	1.525	432.469
253.5000	1.65809	0.00110175	1.55201	436.223
253.0000	1.74405	0.00111748	1.57616	439.632
252.5000	1.18929	0.00105986	1.61089	444.637
252.0000	1.12774	0.000982646	1.63889	448.693
251.5000	0.415213	0.000943525	1.66262	452.14
251.0000	-0.0829242	0.000922049	1.68603	455.516
250.5000	-0.58594	0.00089342	1.70859	458.824
250.0000	-1.11259	0.000848096	1.7289	461.849
249.5000	-1.32228	0.000811658	1.74829	464.771
249.0000	-1.76488	0.000778905	1.76788	467.738
248.5000	-2.00414	0.000675765	1.78592	470.462
248.0000	-1.80772	0.000650525	1.80426	473.258
247.5000	-2.77399	0.000680332	1.82079	475.825
247.0000	-3.32326	0.00065413	1.8376	478.469
246.5000	-3.8592	0.000661696	1.85417	481.065
246.0000	-4.04734	0.000604382	1.87077	483.652
245.5000	-4.98323	0.000482604	1.88774	486.374
245.0000	-5.05207	0.000397422	1.90491	489.138
244.5000	-4.59584	0.000369768	1.92237	491.947
244.0000	-6.06826	0.000319399	1.94007	494.832
243.5000	-5.94143	0.000253632	1.95729	497.673
243.0000	-6.61796	0.000151743	1.97522	500.675
242.5000	-6.36139	7.9494E-005	1.99598	504.176
242.0000	-5.43669	3.41746E-005	2.01509	507.41
241.5000	-5.70903	1.76E-005	2.03776	511.253
241.0000	-7.66394	-0.000115773	2.05981	515.003
240.5000	-6.80053	-0.000149363	2.08566	519.486
240.0000	-7.58819	-0.000221121	2.11086	523.869
239.5000	-8.70974	-0.000288758	2.14255	529.397
239.0000	-8.06543	-0.00034489	2.1724	534.597
238.5000	-7.74312	-0.000337645	2.20614	540.517
238.0000	-7.25579	-0.000385595	2.24401	547.263
237.5000	-7.52659	-0.000453179	2.28063	553.859
237.0000	-7.04901	-0.000680107	2.3217	561.315
236.5000	-7.12517	-0.00060887	2.3653	569.303
236.0000	-9.32258	-0.000780471	2.40903	577.381
235.5000	-7.83891	-0.000873155	2.46235	587.381
235.0000	-7.74285	-0.000873622	2.50027	594.58
234.5000	-6.69704	-0.000812374	2.54206	602.576
234.0000	-6.83147	-0.000922496	2.58808	611.46
233.5000	-5.64225	-0.000896344	2.64117	621.803
233.0000	-4.37603	-0.000885382	2.69891	633.212
232.5000	-2.98478	-0.000924372	2.75533	644.574
232.0000	-1.6698	-0.000700098	2.82216	658.297
231.5000	-0.10311	-0.000590045	2.87773	669.942
231.0000	0.220053	-0.000717676	2.93979	683.183
230.5000	-2.36466	-0.000883412	3.00136	696.647
230.0000	-0.955027	-0.000869309	3.05883	709.548
229.5000	-2.74885	-0.00107556	3.11825	723.149
229.0000	-0.50601	-0.00101105	3.17581	736.651
228.5000	-1.01478	-0.000828424	3.23094	749.865
228.0000	1.62108	-0.0007972	3.28076	762.102
227.5000	1.88476	-0.000759211	3.32962	774.537
227.0000	4.871	-0.000701268	3.3751	786.455
226.5000	7.03776	-0.000856446	3.41894	798.307
226.0000	6.45531	-0.000567189	3.45473	808.387
225.5000	4.55902	-0.000367235	3.48841	818.29
225.0000	3.40253	-0.000183562	3.51767	827.449
224.5000	1.01235	-0.000223841	3.54242	835.751
224.0000	-0.775082	-0.000167032	3.56289	843.14
223.5000	-3.61647	-0.000395941	3.57947	849.633
223.0000	-6.20778	-0.000244351	3.5922	855.248
222.5000	-2.03718	0.000387944	3.60196	860.862
222.0000	-2.50907	0.00035434	3.60656	865.038
221.5000	-3.98049	0.000571471	3.6074	868.525
221.0000	-1.30817	0.000707566	3.60547	870.902
220.5000	0.303039	0.000692598	3.60117	872.757
220.0000	-2.14116	0.00073781	3.59458	874.246

##### Extended Information
[Comments]
Sample name	JS187+JS190_5E-5_H2O_42-58
Comment
User
Division
Company	Labo systeme complexes hors equilibre

[Detailed Information]
Creation date	1/23/2024 12:22 PM

Data array type	Linear data array * 4
Horizontal axis	Wavelength [nm]
Vertical axis(1)	CD [mdeg]
Vertical axis(2)	LD [dOD]
Vertical axis(3)	Abs
Vertical axis(4)	HT [V]
Start	700 nm
End	220 nm
Data interval	0.5 nm
Data points	961     

[Measurement Information]
Instrument name	CD Jasco
Model name	J-1500
Serial No.	A005261638

Detector	PM-539
Detector S/N	A0052PM539
  Lock-in amp.	X mode
  HT volt	Auto

Detector	EXPML-535
Detector S/N	A0001
  Lock-in amp.	X mode
  HT volt	Auto

Measurement date	1/23/2024 12:22 PM

Overload detect	1
Photometric mode	CD, LD, Abs, HT
Measure range	700 - 220 nm
Data pitch	0.5 nm
CD scale	200 mdeg/1.0 dOD
FL scale	200 mdeg/1.0 dOD
D.I.T.	1 sec
Bandwidth	1.00 nm
Start mode	Immediately
Scanning speed	500 nm/min
Baseline correction	Baseline
Shutter control	Auto


