TITLE	JS187+JS190_5E-5_H2O_90-10
DATA TYPE	
ORIGIN	JASCO
OWNER	
DATE	24/01/23
TIME	11:06:58
SPECTROMETER/DATA SYSTEM	
LOCALE	1033
RESOLUTION	
DELTAX	-0.5
XUNITS	NANOMETERS
YUNITS	CD [mdeg]
Y2UNITS	LD [dOD]
Y3UNITS	ABSORBANCE
Y4UNITS	HT [V]
FIRSTX	  700.0000
LASTX	  220.0000
NPOINTS	     961
FIRSTY	     0.30520
MAXY	    27.47290
MINY	   -34.58914
XYDATA
700.0000	0.3052	0.000144641	-0.0614997	298.509
699.5000	0.217234	0.0001385	-0.0626345	298.2
699.0000	0.12274	0.000136922	-0.0638925	297.836
698.5000	0.130575	0.000154265	-0.0647482	297.426
698.0000	0.13141	0.000159214	-0.0659595	296.983
697.5000	-0.0502538	0.000170836	-0.0676603	296.52
697.0000	-0.0742358	0.000199787	-0.0696403	296.014
696.5000	-0.0524495	0.000218926	-0.0708436	295.498
696.0000	-0.166765	0.000205197	-0.0713662	294.931
695.5000	-0.0679609	0.000200821	-0.0714014	294.411
695.0000	-0.27097	0.000191287	-0.0706997	293.96
694.5000	-0.330093	0.00018138	-0.069913	293.538
694.0000	-0.358833	0.000182619	-0.0679241	293.152
693.5000	-0.339992	0.00018466	-0.0655298	292.809
693.0000	-0.240998	0.000186221	-0.062557	292.517
692.5000	-0.481267	0.000174813	-0.0595582	292.251
692.0000	-0.2382	0.000194766	-0.0565556	292.025
691.5000	-0.0650237	0.000183716	-0.0534595	291.817
691.0000	0.185894	0.000182196	-0.0505445	291.61
690.5000	0.170024	0.000190995	-0.0485779	291.419
690.0000	0.268972	0.000172065	-0.0468145	291.256
689.5000	0.000514469	0.00017447	-0.0445595	291.161
689.0000	-0.214217	0.000158433	-0.0412278	291.149
688.5000	-0.285451	0.000152589	-0.0377052	291.233
688.0000	-0.463166	0.000167719	-0.0333918	291.417
687.5000	-0.517092	0.000167035	-0.0290778	291.649
687.0000	-0.471469	0.000192761	-0.0255363	291.888
686.5000	-0.599666	0.000183863	-0.0227664	292.143
686.0000	-0.461936	0.000175461	-0.0216371	292.377
685.5000	-0.150411	0.000193743	-0.0215544	292.617
685.0000	-0.43101	0.000180397	-0.0220383	292.838
684.5000	-0.505966	0.000179522	-0.0229241	293.065
684.0000	-0.237276	0.000182794	-0.0244531	293.269
683.5000	-0.471574	0.000170171	-0.0253286	293.497
683.0000	-0.447306	0.000187091	-0.0261063	293.746
682.5000	-0.524114	0.0001822	-0.0262527	294.01
682.0000	-0.301335	0.00016747	-0.0264538	294.306
681.5000	-0.474465	0.000153987	-0.0262664	294.591
681.0000	-0.258482	0.000155802	-0.0265262	294.847
680.5000	0.251706	0.000162611	-0.0271483	295.046
680.0000	0.261841	0.000156012	-0.0294486	295.156
679.5000	0.269743	0.000148721	-0.0322097	295.217
679.0000	0.289306	0.000139791	-0.0358781	295.239
678.5000	0.447914	0.000145079	-0.0383474	295.239
678.0000	0.500644	0.000148098	-0.0406036	295.22
677.5000	0.623014	0.000167064	-0.0419347	295.198
677.0000	0.433947	0.000174672	-0.0425511	295.171
676.5000	0.760132	0.000164217	-0.0423676	295.149
676.0000	0.708523	0.000163068	-0.0420337	295.138
675.5000	0.652819	0.00016536	-0.0417097	295.126
675.0000	0.599968	0.000166195	-0.041128	295.123
674.5000	0.432659	0.000156408	-0.0399571	295.145
674.0000	0.209472	0.000183272	-0.0387721	295.171
673.5000	0.424175	0.000197781	-0.037587	295.198
673.0000	0.299792	0.000218878	-0.037306	295.233
672.5000	0.0103609	0.000209207	-0.0370173	295.279
672.0000	0.111105	0.000224683	-0.036433	295.33
671.5000	0.198978	0.000216424	-0.0353788	295.382
671.0000	-0.0245068	0.000201643	-0.0342318	295.446
670.5000	0.18885	0.000220835	-0.0328577	295.514
670.0000	0.127009	0.000238171	-0.031711	295.584
669.5000	0.2483	0.000241387	-0.0310468	295.661
669.0000	0.298581	0.000232629	-0.0303399	295.74
668.5000	0.225713	0.000223289	-0.0296236	295.824
668.0000	0.378054	0.000223571	-0.0289905	295.932
667.5000	0.313638	0.000242758	-0.0284286	296.05
667.0000	0.372235	0.000246224	-0.0280922	296.174
666.5000	0.323236	0.000230295	-0.027796	296.293
666.0000	0.283623	0.000234607	-0.0281559	296.425
665.5000	0.358077	0.000216697	-0.028094	296.557
665.0000	0.457502	0.000207927	-0.0272024	296.692
664.5000	0.679798	0.000222569	-0.0262345	296.806
664.0000	0.366973	0.000217687	-0.0259751	296.917
663.5000	0.0749921	0.000210483	-0.0267487	297.023
663.0000	0.448049	0.000208611	-0.0268365	297.115
662.5000	0.332412	0.000225762	-0.0271039	297.194
662.0000	0.419655	0.000206038	-0.0273987	297.266
661.5000	0.208293	0.000209153	-0.0271963	297.324
661.0000	0.0258735	0.000207061	-0.0273224	297.376
660.5000	0.275752	0.000216315	-0.0276974	297.413
660.0000	0.223524	0.000209178	-0.0277752	297.443
659.5000	0.219507	0.000211062	-0.0284678	297.448
659.0000	0.211155	0.000200117	-0.0289493	297.436
658.5000	0.319864	0.000202616	-0.0292403	297.409
658.0000	0.223266	0.000200136	-0.0292721	297.355
657.5000	0.349732	0.000205502	-0.0299172	297.278
657.0000	0.23999	0.000206535	-0.0296806	297.182
656.5000	0.300612	0.000205168	-0.0306069	297.059
656.0000	0.34457	0.000213714	-0.0313548	296.93
655.5000	0.727511	0.00021052	-0.030728	296.78
655.0000	0.728174	0.000224644	-0.0304578	296.647
654.5000	0.627986	0.000215	-0.0307596	296.51
654.0000	0.507717	0.000213062	-0.0301239	296.383
653.5000	0.49871	0.000212269	-0.0287604	296.267
653.0000	0.571016	0.000212956	-0.0269887	296.17
652.5000	0.366742	0.000242214	-0.025088	296.112
652.0000	0.468046	0.000231512	-0.0230101	296.078
651.5000	0.431557	0.000222171	-0.0203144	296.085
651.0000	0.517975	0.00021189	-0.0172213	296.114
650.5000	0.443516	0.000225485	-0.0148418	296.17
650.0000	0.617122	0.000244457	-0.0121636	296.241
649.5000	0.81329	0.000270005	-0.00999379	296.337
649.0000	0.666932	0.000263373	-0.0075658	296.457
648.5000	0.93789	0.000250307	-0.00591957	296.613
648.0000	1.01978	0.000269659	-0.00382331	296.802
647.5000	0.945441	0.000286824	-0.00198231	296.993
647.0000	0.677656	0.000290148	-0.000726075	297.2
646.5000	0.652824	0.000293735	0.000252864	297.403
646.0000	0.80074	0.000298867	0.00201006	297.597
645.5000	0.725896	0.000307312	0.00277365	297.77
645.0000	0.792525	0.000304168	0.00242025	297.933
644.5000	0.820098	0.000308041	0.00226413	298.067
644.0000	0.827745	0.000306299	0.00226838	298.18
643.5000	0.690198	0.000293337	0.00166447	298.247
643.0000	0.881566	0.00030509	0.00105858	298.286
642.5000	0.853196	0.000301789	0.000559365	298.307
642.0000	0.98103	0.000312043	0.000230368	298.307
641.5000	1.00049	0.000310441	-4.76232E-005	298.304
641.0000	0.899606	0.000303645	1.43533E-005	298.287
640.5000	0.81227	0.000332499	0.000553553	298.264
640.0000	0.649482	0.000342622	0.00125197	298.223
639.5000	0.744852	0.000318939	0.00217187	298.161
639.0000	0.829131	0.000332312	0.00280771	298.088
638.5000	0.780119	0.000312322	0.00403616	298.017
638.0000	0.82975	0.000324903	0.00463131	297.941
637.5000	0.928955	0.000322929	0.00503359	297.864
637.0000	0.959526	0.000324948	0.0063856	297.792
636.5000	1.09547	0.00032177	0.00744865	297.722
636.0000	1.24661	0.000302296	0.00783443	297.654
635.5000	1.41835	0.00032472	0.00841246	297.597
635.0000	1.33702	0.000345006	0.00952576	297.553
634.5000	1.20314	0.000336679	0.0105316	297.514
634.0000	0.902169	0.000353626	0.0113303	297.467
633.5000	0.825324	0.000338855	0.0117728	297.424
633.0000	0.712745	0.000337931	0.0127292	297.383
632.5000	0.623751	0.000337655	0.0130342	297.342
632.0000	0.797965	0.000330827	0.0133961	297.306
631.5000	0.60268	0.000324946	0.0140444	297.271
631.0000	0.979851	0.000348629	0.0147545	297.245
630.5000	0.985855	0.000336592	0.0153427	297.21
630.0000	1.04497	0.000342835	0.0158655	297.161
629.5000	0.936774	0.000339172	0.0165903	297.117
629.0000	0.838562	0.00035063	0.0170928	297.076
628.5000	0.793671	0.00035463	0.0172983	297.026
628.0000	0.611129	0.000366264	0.0176383	296.962
627.5000	0.268573	0.0003767	0.0184874	296.913
627.0000	-0.0773268	0.00036244	0.018713	296.854
626.5000	-0.0253216	0.000363015	0.0186449	296.798
626.0000	-0.083121	0.000356745	0.0188865	296.762
625.5000	-0.11871	0.000358641	0.019842	296.734
625.0000	-0.175257	0.000350239	0.0208347	296.704
624.5000	0.0432319	0.000345416	0.0219585	296.689
624.0000	-0.0382333	0.000360062	0.0227888	296.666
623.5000	-0.346097	0.000363188	0.0239315	296.677
623.0000	-0.600017	0.000358326	0.0249847	296.695
622.5000	-0.625262	0.000365036	0.0261236	296.719
622.0000	-0.788462	0.000374127	0.0269589	296.751
621.5000	-0.715457	0.000374965	0.0279691	296.805
621.0000	-0.722406	0.000378405	0.0291342	296.879
620.5000	-0.788059	0.000380518	0.0299798	296.958
620.0000	-0.718142	0.000374319	0.0306718	297.045
619.5000	-0.625006	0.000375555	0.0317451	297.159
619.0000	-0.47998	0.000365579	0.0332261	297.286
618.5000	-0.600236	0.000361274	0.0352086	297.435
618.0000	-0.889442	0.000358613	0.0371697	297.584
617.5000	-0.805702	0.000347743	0.0380246	297.73
617.0000	-0.887762	0.000371101	0.0386161	297.884
616.5000	-0.939658	0.000378698	0.039136	298.027
616.0000	-0.94744	0.00036704	0.0400223	298.161
615.5000	-0.920086	0.000346751	0.04054	298.298
615.0000	-0.581685	0.000341563	0.040978	298.436
614.5000	-0.558243	0.00034262	0.0413182	298.582
614.0000	-0.493106	0.000342188	0.0417324	298.731
613.5000	-0.396681	0.000329925	0.042281	298.871
613.0000	-0.388412	0.000340017	0.0426577	299.011
612.5000	-0.308787	0.00033269	0.0430652	299.145
612.0000	-0.161595	0.000353258	0.0437835	299.296
611.5000	-0.34811	0.00035315	0.0447136	299.438
611.0000	-0.357445	0.000347348	0.0450146	299.569
610.5000	0.0984489	0.000363914	0.0452261	299.699
610.0000	0.151875	0.000370871	0.0451666	299.811
609.5000	0.281688	0.000382889	0.0458077	299.927
609.0000	0.404802	0.000378028	0.0462925	300.026
608.5000	0.542713	0.000363286	0.0473445	300.143
608.0000	0.498477	0.000373598	0.0479986	300.253
607.5000	0.386561	0.000357564	0.0482461	300.363
607.0000	0.627677	0.000374047	0.0489663	300.483
606.5000	0.450576	0.000373635	0.049649	300.587
606.0000	0.303409	0.000386147	0.0510387	300.691
605.5000	0.0731123	0.000384669	0.0520744	300.791
605.0000	-0.0667588	0.000393175	0.0533032	300.876
604.5000	-0.0305202	0.00040899	0.0543157	300.961
604.0000	-0.394968	0.000407619	0.0556211	301.047
603.5000	-0.535419	0.0004023	0.0569574	301.12
603.0000	-0.459172	0.000407179	0.0579877	301.203
602.5000	-0.762356	0.000391524	0.0594738	301.283
602.0000	-0.597181	0.000385797	0.0611848	301.368
601.5000	-0.86405	0.000392668	0.0627902	301.455
601.0000	-0.897374	0.000385734	0.0644335	301.545
600.5000	-1.03355	0.000398563	0.0665508	301.628
600.0000	-1.25646	0.00039684	0.0681769	301.688
599.5000	-1.17487	0.00040651	0.0706968	301.749
599.0000	-1.19606	0.000427862	0.0726674	301.791
598.5000	-1.17159	0.000437103	0.0752564	301.835
598.0000	-0.96777	0.000434839	0.0774134	301.877
597.5000	-0.965036	0.000449852	0.0794651	301.926
597.0000	-0.906175	0.000444421	0.08194	301.987
596.5000	-0.74668	0.000441858	0.0844614	302.028
596.0000	-0.642549	0.000455286	0.0871199	302.077
595.5000	-0.556921	0.000430542	0.0896542	302.129
595.0000	-0.596782	0.000433251	0.0924331	302.166
594.5000	-0.340548	0.000445111	0.0954204	302.223
594.0000	-0.323046	0.00047505	0.0979397	302.287
593.5000	-0.245952	0.000476268	0.100964	302.345
593.0000	-0.16279	0.000477452	0.104478	302.417
592.5000	0.0493009	0.000482704	0.107471	302.506
592.0000	0.334983	0.00050375	0.110551	302.625
591.5000	0.249011	0.000498803	0.113203	302.732
591.0000	0.110442	0.000516793	0.11666	302.871
590.5000	0.256141	0.00052245	0.119876	303.028
590.0000	0.0804661	0.000519051	0.123331	303.199
589.5000	-0.0344768	0.000512583	0.126969	303.372
589.0000	-0.089875	0.000516835	0.13087	303.575
588.5000	-0.103184	0.000526272	0.134848	303.811
588.0000	0.0122429	0.00052146	0.139321	304.079
587.5000	0.00162422	0.000541349	0.143887	304.372
587.0000	0.34269	0.000545391	0.148609	304.716
586.5000	0.344094	0.000559548	0.153125	305.05
586.0000	-0.00235567	0.000572696	0.158252	305.393
585.5000	0.39114	0.000582274	0.16315	305.765
585.0000	0.816067	0.000599998	0.168063	306.156
584.5000	1.00291	0.000612837	0.172975	306.548
584.0000	0.793537	0.000616047	0.178769	307
583.5000	0.836005	0.000618292	0.184871	307.481
583.0000	1.1732	0.000626555	0.191698	308.01
582.5000	1.51633	0.000617019	0.198431	308.571
582.0000	1.73281	0.000653203	0.20534	309.145
581.5000	2.16336	0.000679148	0.212919	309.79
581.0000	2.4589	0.000685038	0.221051	310.465
580.5000	3.11217	0.000690931	0.229286	311.157
580.0000	3.45197	0.000717925	0.237421	311.859
579.5000	3.94307	0.000733845	0.245849	312.605
579.0000	4.32799	0.000763944	0.254463	313.36
578.5000	4.6293	0.000780488	0.263893	314.155
578.0000	5.15849	0.000813566	0.273564	315.006
577.5000	5.90305	0.000822862	0.283424	315.935
577.0000	6.2207	0.000860326	0.294261	316.875
576.5000	6.85095	0.000864171	0.306129	317.914
576.0000	7.72054	0.000892517	0.317728	318.935
575.5000	8.45265	0.000905311	0.330177	320.028
575.0000	9.063	0.000940987	0.341578	321.077
574.5000	9.80122	0.000985957	0.354438	322.242
574.0000	10.4761	0.00100583	0.367479	323.4
573.5000	11.2487	0.00101942	0.38076	324.597
573.0000	12.1181	0.00104334	0.39454	325.896
572.5000	12.8797	0.00106018	0.407665	327.141
572.0000	13.4039	0.00108726	0.4227	328.59
571.5000	14.2955	0.00111381	0.437724	330.019
571.0000	15.0659	0.00114155	0.454213	331.543
570.5000	16.0449	0.00116952	0.470685	333.126
570.0000	17.2097	0.00121072	0.486674	334.679
569.5000	18.1469	0.00122579	0.504127	336.323
569.0000	18.9266	0.00125709	0.521717	337.983
568.5000	19.7494	0.00128315	0.538036	339.586
568.0000	20.552	0.00132639	0.554766	341.267
567.5000	21.1566	0.0013609	0.571781	342.976
567.0000	21.782	0.0013998	0.588645	344.637
566.5000	22.5447	0.00138309	0.605218	346.255
566.0000	23.2469	0.00140332	0.621664	347.864
565.5000	24.1765	0.00142896	0.637526	349.455
565.0000	24.9508	0.00145166	0.653261	351.002
564.5000	25.5568	0.00147681	0.668871	352.533
564.0000	26.0685	0.00148587	0.683376	353.922
563.5000	26.5641	0.00150178	0.697115	355.268
563.0000	27.0453	0.00152926	0.710833	356.647
562.5000	27.1815	0.00151014	0.723447	357.888
562.0000	27.4729	0.00151982	0.735652	359.083
561.5000	27.3909	0.00150286	0.748602	360.309
561.0000	27.2284	0.00154642	0.760434	361.46
560.5000	27.2766	0.00154463	0.77136	362.527
560.0000	26.9704	0.00152899	0.781751	363.507
559.5000	27.0079	0.00149302	0.791514	364.372
559.0000	27.1211	0.00149457	0.799685	365.091
558.5000	26.5871	0.00148422	0.806423	365.691
558.0000	26.525	0.00146135	0.811999	366.176
557.5000	25.8651	0.00146932	0.817282	366.592
557.0000	25.162	0.00146395	0.821826	366.911
556.5000	24.1645	0.00143991	0.825154	367.149
556.0000	23.9881	0.00144661	0.827203	367.301
555.5000	23.0711	0.00144092	0.828786	367.364
555.0000	22.3251	0.00141207	0.829553	367.315
554.5000	21.5866	0.00139807	0.830023	367.19
554.0000	20.9177	0.0013931	0.829047	366.967
553.5000	20.2565	0.00138981	0.827559	366.687
553.0000	19.6149	0.00134877	0.825507	366.354
552.5000	19.1159	0.00134626	0.823707	365.994
552.0000	18.8287	0.00134124	0.821038	365.532
551.5000	18.2292	0.00133426	0.818175	365.064
551.0000	17.7119	0.00130721	0.814661	364.568
550.5000	17.3349	0.00129798	0.810882	364.027
550.0000	16.8546	0.0012938	0.807181	363.465
549.5000	16.5157	0.00128314	0.8036	362.897
549.0000	16.4486	0.00127006	0.799418	362.328
548.5000	16.4349	0.00127791	0.79525	361.774
548.0000	16.1788	0.00125509	0.791877	361.178
547.5000	16.1456	0.00125957	0.788746	360.634
547.0000	15.9764	0.00125887	0.78572	360.081
546.5000	15.8283	0.00126024	0.782775	359.605
546.0000	16.1822	0.00124145	0.779555	359.176
545.5000	16.2266	0.00124473	0.777646	358.773
545.0000	16.2801	0.0012456	0.776111	358.461
544.5000	16.2403	0.00126429	0.774782	358.161
544.0000	16.3264	0.00126646	0.773498	357.913
543.5000	16.4953	0.00130051	0.772874	357.725
543.0000	16.4876	0.00131059	0.772825	357.582
542.5000	16.7947	0.00134538	0.773621	357.5
542.0000	16.7021	0.00137389	0.774463	357.46
541.5000	16.7503	0.00138608	0.775948	357.51
541.0000	17.1432	0.0013915	0.777667	357.61
540.5000	17.2333	0.00140107	0.780634	357.768
540.0000	17.6907	0.00143831	0.784238	357.98
539.5000	18.2154	0.00142518	0.787988	358.263
539.0000	18.7252	0.00144599	0.792136	358.628
538.5000	19.6314	0.00143827	0.796999	359.05
538.0000	20.0351	0.00146969	0.802417	359.487
537.5000	20.2404	0.00146747	0.808572	360.017
537.0000	20.8032	0.00146272	0.814936	360.594
536.5000	21.3959	0.00148772	0.82171	361.202
536.0000	21.6726	0.00147148	0.829388	361.89
535.5000	21.8992	0.00146713	0.837229	362.607
535.0000	22.4113	0.00145635	0.846044	363.413
534.5000	22.8932	0.00144436	0.854502	364.195
534.0000	23.6535	0.00146958	0.863614	365.054
533.5000	24.0659	0.00145399	0.87285	365.952
533.0000	24.1785	0.00143623	0.881773	366.829
532.5000	24.6302	0.00146765	0.891019	367.751
532.0000	24.662	0.00147725	0.901091	368.752
531.5000	24.833	0.00144862	0.911565	369.785
531.0000	25.044	0.00146812	0.923178	370.88
530.5000	24.9404	0.00144722	0.934065	371.94
530.0000	24.9792	0.00141824	0.945318	373.063
529.5000	24.8734	0.00143152	0.956205	374.148
529.0000	24.7887	0.00140494	0.966745	375.164
528.5000	24.6725	0.00140367	0.97711	376.188
528.0000	24.4874	0.00139156	0.987051	377.169
527.5000	24.6188	0.00140955	0.997404	378.17
527.0000	24.7496	0.00143988	1.00852	379.245
526.5000	24.0944	0.00144617	1.01872	380.258
526.0000	24.0704	0.00142991	1.0295	381.303
525.5000	23.4218	0.00140504	1.03998	382.316
525.0000	22.7137	0.00144293	1.05016	383.299
524.5000	22.3154	0.00144168	1.05966	384.194
524.0000	21.3379	0.00144301	1.06823	384.99
523.5000	20.6798	0.00146697	1.07656	385.796
523.0000	19.9983	0.00148616	1.08445	386.552
522.5000	19.8271	0.00149226	1.09164	387.26
522.0000	19.1437	0.00147112	1.09913	387.971
521.5000	18.5978	0.00145443	1.10661	388.655
521.0000	17.4907	0.00145842	1.11337	389.28
520.5000	16.8238	0.00146283	1.11983	389.87
520.0000	16.3644	0.00145322	1.1255	390.383
519.5000	15.5344	0.00143158	1.13128	390.876
519.0000	14.0742	0.00141291	1.13663	391.351
518.5000	12.9558	0.00137434	1.14134	391.788
518.0000	12.2186	0.0013467	1.14633	392.218
517.5000	11.2616	0.0013283	1.15116	392.62
517.0000	10.9001	0.00128272	1.15595	392.992
516.5000	10.2105	0.00127136	1.16057	393.338
516.0000	10.0724	0.00120286	1.16493	393.679
515.5000	9.54177	0.00117547	1.1687	394.005
515.0000	9.10237	0.00112258	1.17232	394.304
514.5000	8.37956	0.00111762	1.17576	394.596
514.0000	7.36911	0.00109719	1.17893	394.845
513.5000	6.90604	0.00109319	1.1822	395.096
513.0000	6.56131	0.00108046	1.18502	395.337
512.5000	5.69809	0.0011174	1.18844	395.618
512.0000	5.18453	0.00111828	1.19175	395.881
511.5000	4.69853	0.0011176	1.19471	396.146
511.0000	4.53453	0.00110227	1.19759	396.381
510.5000	4.77262	0.00109826	1.20054	396.595
510.0000	4.73902	0.00109922	1.20342	396.804
509.5000	3.99967	0.00113414	1.20615	397.013
509.0000	3.63381	0.00113119	1.20867	397.213
508.5000	3.41569	0.00114862	1.21122	397.405
508.0000	2.82531	0.00114984	1.21388	397.572
507.5000	2.12075	0.00117386	1.21661	397.739
507.0000	1.59685	0.00115664	1.21943	397.908
506.5000	1.40697	0.0011314	1.2221	398.064
506.0000	1.1506	0.00110309	1.22438	398.224
505.5000	0.746074	0.00112997	1.22672	398.388
505.0000	-0.0844102	0.00112022	1.22911	398.549
504.5000	-0.490434	0.00111321	1.23172	398.721
504.0000	-0.663993	0.0010666	1.23377	398.834
503.5000	-0.613433	0.00104943	1.23547	398.911
503.0000	-1.04712	0.00101731	1.23716	398.968
502.5000	-1.58683	0.00101965	1.23863	399.021
502.0000	-2.51718	0.00100166	1.23999	399.069
501.5000	-2.78192	0.000983863	1.24133	399.092
501.0000	-2.92108	0.000972991	1.24256	399.09
500.5000	-3.23477	0.000942275	1.24373	399.05
500.0000	-3.8808	0.000906565	1.24447	398.94
499.5000	-3.99179	0.000877726	1.2443	398.75
499.0000	-3.95853	0.000836572	1.24359	398.415
498.5000	-5.24381	0.000843651	1.2424	397.933
498.0000	-5.5601	0.000879964	1.241	397.325
497.5000	-6.07084	0.000894377	1.2398	396.558
497.0000	-6.55023	0.00086743	1.23938	395.776
496.5000	-7.09111	0.000843105	1.24018	395.06
496.0000	-7.97332	0.000820116	1.24234	394.567
495.5000	-9.27097	0.000817791	1.24475	394.251
495.0000	-10.2375	0.000819344	1.24561	393.995
494.5000	-11.3085	0.000791147	1.24547	393.741
494.0000	-11.8776	0.000756144	1.24494	393.491
493.5000	-12.5075	0.000726225	1.24408	393.202
493.0000	-13.2398	0.000665358	1.24337	392.944
492.5000	-14.3881	0.000660533	1.24257	392.678
492.0000	-15.6672	0.000614868	1.24134	392.379
491.5000	-16.6104	0.000604404	1.24006	392.123
491.0000	-18.2328	0.000608389	1.23897	391.891
490.5000	-18.7483	0.000590176	1.23778	391.688
490.0000	-19.6561	0.000501968	1.23635	391.516
489.5000	-20.8472	0.000431752	1.23463	391.378
489.0000	-21.718	0.000434562	1.2321	391.177
488.5000	-22.419	0.000406941	1.22817	390.829
488.0000	-23.1398	0.000405456	1.22237	390.181
487.5000	-23.7842	0.000367176	1.21608	389.296
487.0000	-24.0413	0.000340029	1.21106	388.342
486.5000	-24.6371	0.000326258	1.2058	387.227
486.0000	-25.441	0.000286286	1.20124	386.14
485.5000	-25.9706	0.000281182	1.1983	385.115
485.0000	-26.701	0.000290809	1.19628	384.199
484.5000	-27.1978	0.000273741	1.19346	383.393
484.0000	-27.5364	0.000259018	1.1896	382.617
483.5000	-28.2241	0.000231828	1.18565	381.927
483.0000	-28.2314	0.000261384	1.1808	381.225
482.5000	-28.681	0.000239665	1.17583	380.608
482.0000	-29.3139	0.000235333	1.17062	380.028
481.5000	-29.7235	0.000241217	1.16531	379.434
481.0000	-29.8358	0.00024038	1.16014	378.864
480.5000	-30.4521	0.000209035	1.15467	378.312
480.0000	-30.5702	0.000219914	1.14857	377.734
479.5000	-30.8121	0.000209423	1.14187	377.098
479.0000	-31.1001	0.00019501	1.13244	376.187
478.5000	-31.2335	0.000196409	1.12276	375.051
478.0000	-31.4873	0.000201382	1.11534	373.789
477.5000	-31.8111	0.000215405	1.11208	372.819
477.0000	-32.1692	0.000217198	1.10838	371.998
476.5000	-32.2641	0.000215348	1.09936	370.872
476.0000	-32.3596	0.000224968	1.08891	369.524
475.5000	-32.3454	0.000227849	1.07832	367.944
475.0000	-32.1124	0.000230942	1.0679	366.162
474.5000	-32.5764	0.000228478	1.05852	364.305
474.0000	-32.4227	0.000220716	1.0495	362.304
473.5000	-32.5392	0.000223778	1.03958	360.021
473.0000	-32.8327	0.000231952	1.02998	357.612
472.5000	-33.0778	0.000240783	1.0226	355.213
472.0000	-32.8811	0.000235955	1.01874	353.285
471.5000	-33.1619	0.000235885	1.0157	351.736
471.0000	-32.7984	0.000235367	1.01313	350.787
470.5000	-33.2375	0.000247059	1.01064	350.168
470.0000	-33.4486	0.000249935	1.0067	349.794
469.5000	-33.4922	0.000250399	0.998047	349.236
469.0000	-33.4708	0.000220692	0.983741	348.117
468.5000	-33.6786	0.000210048	0.970643	346.702
468.0000	-33.9188	0.000200778	0.961106	345.318
467.5000	-33.9592	0.000201474	0.954234	344.186
467.0000	-33.8209	0.00021521	0.948919	343.323
466.5000	-34.1656	0.0002294	0.94414	342.694
466.0000	-34.2983	0.00022261	0.938399	342.244
465.5000	-34.2602	0.000193727	0.932073	341.999
465.0000	-34.3481	0.000216233	0.924984	342
464.5000	-34.2298	0.000211772	0.915239	342.04
464.0000	-34.5891	0.000202212	0.901792	341.772
463.5000	-34.3571	0.000192729	0.886637	341.11
463.0000	-34.2633	0.000195144	0.872406	340.16
462.5000	-33.7383	0.000210497	0.860697	339.138
462.0000	-33.6449	0.000203317	0.850531	338.102
461.5000	-33.5613	0.000214581	0.841514	337.212
461.0000	-33.0378	0.000230163	0.832707	336.462
460.5000	-32.6991	0.000217785	0.823312	335.815
460.0000	-32.5078	0.000225014	0.813882	335.254
459.5000	-32.4033	0.000227241	0.803685	334.712
459.0000	-32.0769	0.000243017	0.791818	334.047
458.5000	-31.8197	0.000239173	0.779419	333.285
458.0000	-31.343	0.000250841	0.766133	332.32
457.5000	-31.0359	0.000278712	0.752724	331.129
457.0000	-30.4877	0.000288605	0.74037	329.807
456.5000	-30.191	0.000290688	0.730338	328.594
456.0000	-29.5711	0.000316789	0.719128	327.384
455.5000	-29.4439	0.0003454	0.705049	325.913
455.0000	-29.0607	0.000362682	0.692658	324.427
454.5000	-28.4598	0.000372574	0.68356	323.135
454.0000	-28.0418	0.000361467	0.675042	322.082
453.5000	-27.6365	0.000369461	0.664466	321.143
453.0000	-27.3152	0.000376285	0.653281	320.217
452.5000	-27.2701	0.000410172	0.642362	319.273
452.0000	-27.1138	0.000440581	0.631609	318.285
451.5000	-26.6002	0.000442928	0.620362	317.253
451.0000	-26.357	0.000452959	0.609738	316.276
450.5000	-25.9729	0.00048267	0.598729	315.246
450.0000	-25.5757	0.000499712	0.588977	314.291
449.5000	-25.1292	0.000522156	0.580732	313.521
449.0000	-24.6138	0.000524487	0.572795	312.908
448.5000	-24.5125	0.000534642	0.562384	312.209
448.0000	-23.915	0.000553786	0.551611	311.412
447.5000	-23.4215	0.000539318	0.543695	310.759
447.0000	-23.2128	0.000538936	0.537801	310.369
446.5000	-22.8314	0.000556963	0.530155	310.036
446.0000	-22.3779	0.000575165	0.518213	309.423
445.5000	-22.3954	0.000597128	0.506463	308.551
445.0000	-21.9542	0.000604304	0.496436	307.566
444.5000	-21.5887	0.000599491	0.48688	306.549
444.0000	-20.9613	0.000611411	0.477658	305.539
443.5000	-20.3419	0.000636688	0.468668	304.484
443.0000	-20.1184	0.000652494	0.461128	303.556
442.5000	-19.6524	0.000659195	0.453951	302.672
442.0000	-19.3449	0.000661431	0.447341	301.918
441.5000	-19.0758	0.000660427	0.439898	301.119
441.0000	-18.8906	0.00066634	0.432892	300.38
440.5000	-18.8315	0.000686188	0.426141	299.668
440.0000	-18.3557	0.000699879	0.418981	298.924
439.5000	-17.8893	0.000703663	0.411564	298.164
439.0000	-17.4407	0.000729448	0.403459	297.347
438.5000	-16.9233	0.000748778	0.395021	296.521
438.0000	-16.6396	0.000752112	0.386458	295.705
437.5000	-16.2304	0.000756388	0.378483	294.936
437.0000	-15.6701	0.000769794	0.370142	294.154
436.5000	-15.1824	0.000782334	0.363513	293.498
436.0000	-14.8123	0.000807676	0.357405	292.908
435.5000	-14.7274	0.000797153	0.35079	292.338
435.0000	-14.3689	0.000811456	0.343586	291.751
434.5000	-14.0108	0.000814353	0.336367	291.166
434.0000	-13.6742	0.000808015	0.329216	290.555
433.5000	-13.4191	0.000831142	0.322495	289.954
433.0000	-13.0412	0.000848654	0.315943	289.318
432.5000	-12.7084	0.000848476	0.309644	288.701
432.0000	-12.3258	0.000855219	0.30293	288.052
431.5000	-12.1311	0.000841072	0.29641	287.41
431.0000	-11.7596	0.000836526	0.290217	286.786
430.5000	-11.4239	0.000861776	0.284236	286.171
430.0000	-11.3515	0.000867572	0.278635	285.577
429.5000	-10.9983	0.000877668	0.272632	284.953
429.0000	-10.6664	0.000880838	0.266808	284.34
428.5000	-10.5435	0.000890772	0.260834	283.722
428.0000	-10.1845	0.00089488	0.254396	283.089
427.5000	-9.96904	0.000878805	0.249178	282.546
427.0000	-9.66387	0.00087934	0.243918	281.99
426.5000	-9.42641	0.000871264	0.238831	281.441
426.0000	-9.24702	0.000883678	0.23344	280.846
425.5000	-9.01163	0.0008812	0.228077	280.215
425.0000	-8.76338	0.000883761	0.222642	279.57
424.5000	-8.45657	0.000893083	0.217418	278.911
424.0000	-8.30916	0.000889196	0.212894	278.299
423.5000	-8.16626	0.000899142	0.209098	277.756
423.0000	-7.9857	0.000901097	0.204908	277.243
422.5000	-7.89669	0.000905433	0.200536	276.772
422.0000	-7.697	0.000896057	0.19608	276.324
421.5000	-7.32101	0.000900384	0.191792	275.9
421.0000	-7.07141	0.000897169	0.187951	275.511
420.5000	-6.90979	0.000910435	0.183973	275.114
420.0000	-6.67645	0.000909241	0.180094	274.712
419.5000	-6.62155	0.000909783	0.176089	274.28
419.0000	-6.4091	0.000909231	0.172302	273.879
418.5000	-6.1387	0.000906586	0.168437	273.507
418.0000	-6.07345	0.000919488	0.165112	273.161
417.5000	-5.94652	0.00093327	0.161659	272.822
417.0000	-5.86261	0.000932738	0.158809	272.523
416.5000	-5.68395	0.000923924	0.156276	272.287
416.0000	-5.49521	0.000915753	0.153309	272.077
415.5000	-5.3261	0.000924574	0.149761	271.83
415.0000	-5.17251	0.000933262	0.146168	271.543
414.5000	-5.10263	0.000938414	0.14316	271.235
414.0000	-4.99738	0.000948681	0.140711	270.934
413.5000	-4.82723	0.0009531	0.138239	270.614
413.0000	-5.00361	0.000961808	0.136017	270.329
412.5000	-4.78331	0.000956035	0.133824	270.07
412.0000	-4.6764	0.000967328	0.131904	269.844
411.5000	-4.397	0.000972928	0.129676	269.615
411.0000	-4.30447	0.000973189	0.127607	269.404
410.5000	-4.14237	0.000970438	0.125799	269.208
410.0000	-4.09211	0.000980475	0.124203	269.031
409.5000	-3.95623	0.000981427	0.122747	268.878
409.0000	-3.82578	0.000977185	0.121419	268.754
408.5000	-3.6465	0.000982109	0.119509	268.607
408.0000	-3.60129	0.000988531	0.117565	268.471
407.5000	-3.39178	0.000988757	0.115408	268.31
407.0000	-3.30888	0.000982735	0.11351	268.146
406.5000	-3.23149	0.000971914	0.111959	267.997
406.0000	-3.05484	0.000977829	0.110234	267.829
405.5000	-2.78977	0.000984403	0.10834	267.653
405.0000	-2.64304	0.000979865	0.106404	267.45
404.5000	-2.41237	0.000986177	0.10486	267.262
404.0000	-2.49008	0.000979015	0.103472	267.033
403.5000	-2.53778	0.000985502	0.101968	266.771
403.0000	-2.59114	0.000986255	0.101017	266.514
402.5000	-2.41719	0.000991135	0.099672	266.238
402.0000	-2.45999	0.000992562	0.0989667	265.99
401.5000	-2.25508	0.000994136	0.0982954	265.715
401.0000	-2.2141	0.00099354	0.0974535	265.464
400.5000	-2.15905	0.0010012	0.0966674	265.23
400.0000	-2.21626	0.00100418	0.0958023	265.021
399.5000	-2.28082	0.000999255	0.0956176	264.836
399.0000	-2.21554	0.00101343	0.0955251	264.692
398.5000	-2.26631	0.00101107	0.0950765	264.55
398.0000	-2.23757	0.00101597	0.0946946	264.439
397.5000	-2.25737	0.00100021	0.0941912	264.343
397.0000	-2.27027	0.000997429	0.0941368	264.281
396.5000	-2.2966	0.000993025	0.093956	264.256
396.0000	-2.31694	0.000986752	0.0937211	264.244
395.5000	-2.23656	0.000982924	0.0931987	264.264
395.0000	-2.24029	0.000986841	0.0929549	264.322
394.5000	-2.07915	0.000992102	0.092726	264.397
394.0000	-2.04894	0.000996826	0.0926642	264.508
393.5000	-2.0374	0.000992433	0.0922016	264.626
393.0000	-1.93559	0.000986899	0.0916619	264.763
392.5000	-1.77185	0.00100173	0.0913868	264.899
392.0000	-1.58374	0.00099193	0.0913361	265.02
391.5000	-1.5485	0.000983712	0.0915053	265.125
391.0000	-1.48005	0.000981539	0.0914631	265.214
390.5000	-1.46344	0.000981893	0.0912191	265.297
390.0000	-1.46364	0.000989555	0.09105	265.375
389.5000	-1.36602	0.000999173	0.0911241	265.437
389.0000	-1.31798	0.00100404	0.0915015	265.504
388.5000	-1.2332	0.00100171	0.0916048	265.563
388.0000	-1.17916	0.00100796	0.0916949	265.627
387.5000	-1.15541	0.00100462	0.0920857	265.686
387.0000	-1.31719	0.00101355	0.0928648	265.736
386.5000	-1.35218	0.00100759	0.0935053	265.783
386.0000	-1.30966	0.0010089	0.0942211	265.821
385.5000	-1.29567	0.000994213	0.0950465	265.864
385.0000	-1.26958	0.00100462	0.095854	265.899
384.5000	-1.46333	0.00100169	0.0966967	265.936
384.0000	-1.60833	0.00100602	0.0975683	265.964
383.5000	-1.62079	0.00101607	0.0983651	266.008
383.0000	-1.43799	0.00102289	0.0989983	266.05
382.5000	-1.42224	0.00102517	0.0997629	266.097
382.0000	-1.49977	0.00102163	0.101003	266.146
381.5000	-1.63992	0.00100687	0.102335	266.194
381.0000	-1.55823	0.001017	0.103501	266.254
380.5000	-1.48076	0.00100913	0.10446	266.313
380.0000	-1.4787	0.0010105	0.105668	266.372
379.5000	-1.42001	0.00102094	0.106852	266.427
379.0000	-1.36471	0.00101119	0.107776	266.49
378.5000	-1.22653	0.00100808	0.108325	266.548
378.0000	-1.12565	0.00100484	0.108885	266.602
377.5000	-0.911415	0.000993219	0.109496	266.646
377.0000	-0.829849	0.00100502	0.110001	266.682
376.5000	-0.867394	0.00100471	0.110791	266.72
376.0000	-0.765215	0.000994856	0.111522	266.746
375.5000	-0.79658	0.000995567	0.111976	266.765
375.0000	-0.608523	0.00100011	0.112389	266.772
374.5000	-0.768914	0.000996443	0.112806	266.772
374.0000	-0.606416	0.000997377	0.113199	266.766
373.5000	-0.484443	0.000997107	0.113558	266.765
373.0000	-0.397671	0.00098033	0.113752	266.77
372.5000	-0.438289	0.000983884	0.113967	266.77
372.0000	-0.333348	0.000996656	0.114111	266.757
371.5000	-0.390323	0.00100318	0.114357	266.762
371.0000	-0.422065	0.000984988	0.114816	266.77
370.5000	-0.403671	0.000998319	0.115243	266.77
370.0000	-0.482186	0.000991631	0.115693	266.786
369.5000	-0.575495	0.000995576	0.116089	266.803
369.0000	-0.729861	0.000997943	0.116596	266.832
368.5000	-0.779381	0.000994387	0.117205	266.864
368.0000	-0.774082	0.000994067	0.117629	266.905
367.5000	-0.693652	0.00100526	0.118248	266.957
367.0000	-0.575786	0.000990989	0.119091	267.014
366.5000	-0.660632	0.000981806	0.119635	267.072
366.0000	-0.751434	0.000979653	0.120375	267.159
365.5000	-0.800622	0.000959358	0.12099	267.236
365.0000	-0.626533	0.000965625	0.121393	267.306
364.5000	-0.638114	0.000967598	0.12206	267.38
364.0000	-0.589292	0.000960741	0.122516	267.452
363.5000	-0.665978	0.000947647	0.123381	267.532
363.0000	-0.593939	0.000938756	0.124224	267.614
362.5000	-0.566573	0.000938379	0.124975	267.701
362.0000	-0.47536	0.000928073	0.125601	267.78
361.5000	-0.341448	0.000943084	0.126437	267.862
361.0000	-0.273915	0.000957079	0.12727	267.945
360.5000	-0.257434	0.000952087	0.127931	268.033
360.0000	-0.037016	0.000944638	0.128587	268.112
359.5000	0.0506399	0.00094149	0.128994	268.176
359.0000	0.0175802	0.000928783	0.12921	268.244
358.5000	0.0709274	0.000932335	0.129244	268.306
358.0000	0.149141	0.000925739	0.129173	268.356
357.5000	0.274141	0.000939145	0.129264	268.421
357.0000	0.287654	0.000943408	0.129594	268.485
356.5000	0.303399	0.000940785	0.130012	268.529
356.0000	0.35152	0.000937432	0.130182	268.582
355.5000	0.330687	0.000932095	0.13036	268.638
355.0000	0.521833	0.000925549	0.130404	268.693
354.5000	0.640134	0.000939563	0.130446	268.749
354.0000	0.638628	0.000938089	0.130653	268.81
353.5000	0.855193	0.000951188	0.130886	268.873
353.0000	0.858573	0.00095256	0.131097	268.941
352.5000	0.924168	0.000938558	0.131321	269.008
352.0000	1.14541	0.000931783	0.131536	269.073
351.5000	1.17972	0.000935072	0.131902	269.148
351.0000	1.18728	0.000927489	0.132468	269.212
350.5000	1.22755	0.000922353	0.133162	269.277
350.0000	1.22879	0.000931159	0.134002	269.35
349.5000	1.23811	0.00092683	0.135009	269.431
349.0000	1.21813	0.000918882	0.136001	269.504
348.5000	1.26474	0.000923486	0.13708	269.576
348.0000	1.31295	0.000923095	0.13795	269.653
347.5000	1.26311	0.000924629	0.138947	269.716
347.0000	1.0907	0.000924525	0.140029	269.783
346.5000	1.06676	0.000927837	0.140876	269.847
346.0000	1.13809	0.000915732	0.141648	269.911
345.5000	1.15179	0.000911423	0.142641	269.979
345.0000	1.0152	0.000893422	0.143703	270.051
344.5000	1.10403	0.000886731	0.144655	270.112
344.0000	0.983712	0.000879677	0.14578	270.172
343.5000	0.839556	0.000870919	0.146519	270.221
343.0000	0.699101	0.000857505	0.147138	270.269
342.5000	0.807655	0.000861944	0.147828	270.336
342.0000	0.798968	0.000856711	0.148641	270.417
341.5000	0.924988	0.00084982	0.149438	270.488
341.0000	1.09333	0.000850934	0.150426	270.557
340.5000	1.04113	0.00083666	0.151085	270.622
340.0000	1.00967	0.000832623	0.151807	270.695
339.5000	1.18797	0.000825451	0.152337	270.775
339.0000	1.37985	0.000806774	0.153148	270.854
338.5000	1.51627	0.000803212	0.154032	270.933
338.0000	1.44447	0.000809666	0.154863	271.013
337.5000	1.33506	0.000817277	0.155624	271.095
337.0000	1.39265	0.000806665	0.156331	271.18
336.5000	1.28648	0.00079582	0.157198	271.261
336.0000	1.4763	0.000788726	0.158167	271.363
335.5000	1.56128	0.000792929	0.158921	271.445
335.0000	1.52328	0.000786431	0.159819	271.539
334.5000	1.68141	0.000773547	0.160565	271.629
334.0000	1.83777	0.000762792	0.161528	271.727
333.5000	1.91047	0.000760606	0.1629	271.83
333.0000	1.8091	0.000748562	0.163958	271.936
332.5000	1.60975	0.000741647	0.164646	272.035
332.0000	1.67797	0.000747538	0.165333	272.128
331.5000	1.67969	0.000747911	0.166393	272.234
331.0000	1.63826	0.000747829	0.16757	272.348
330.5000	1.56334	0.000750542	0.168464	272.456
330.0000	1.48641	0.000735771	0.16955	272.572
329.5000	1.60715	0.000729358	0.170627	272.689
329.0000	1.64388	0.000696756	0.171517	272.799
328.5000	1.68452	0.000701121	0.172393	272.896
328.0000	1.79906	0.000699783	0.173055	272.984
327.5000	1.73023	0.000698039	0.174	273.08
327.0000	1.59043	0.000696116	0.175187	273.173
326.5000	1.65084	0.000689702	0.176636	273.288
326.0000	1.34819	0.00069383	0.17831	273.419
325.5000	1.17881	0.000697558	0.179723	273.548
325.0000	1.12411	0.000692657	0.180791	273.675
324.5000	1.35417	0.000694397	0.182084	273.81
324.0000	1.54401	0.000685928	0.183736	273.96
323.5000	1.44653	0.000675449	0.185574	274.116
323.0000	1.37486	0.000677906	0.187109	274.27
322.5000	1.2374	0.000665465	0.188638	274.426
322.0000	1.16339	0.000663579	0.189962	274.577
321.5000	1.18801	0.000655411	0.19171	274.744
321.0000	1.09436	0.000646418	0.193601	274.921
320.5000	1.18089	0.000649041	0.195589	275.101
320.0000	0.924479	0.000645449	0.197341	275.274
319.5000	0.899247	0.000635054	0.199246	275.46
319.0000	1.0132	0.000634473	0.200888	275.646
318.5000	1.00997	0.000634404	0.202594	275.848
318.0000	1.06494	0.000621321	0.204016	276.019
317.5000	1.32503	0.000598956	0.20554	276.181
317.0000	1.31994	0.000594752	0.207305	276.338
316.5000	1.24043	0.000581269	0.209307	276.502
316.0000	1.15447	0.000564472	0.211367	276.674
315.5000	1.08591	0.000561574	0.212995	276.841
315.0000	1.1685	0.00055481	0.214841	277.038
314.5000	1.10776	0.00054059	0.216671	277.234
314.0000	1.17057	0.000546323	0.218596	277.429
313.5000	1.21042	0.000532719	0.220667	277.634
313.0000	1.30582	0.000534535	0.222753	277.851
312.5000	1.33685	0.000527681	0.224626	278.06
312.0000	1.12653	0.000505211	0.226821	278.279
311.5000	1.20043	0.000497619	0.229069	278.515
311.0000	1.18068	0.000503616	0.23168	278.763
310.5000	1.13982	0.000485767	0.234233	279.044
310.0000	1.03207	0.000489324	0.236759	279.303
309.5000	0.98067	0.000491521	0.239632	279.59
309.0000	0.879642	0.000485289	0.242887	279.919
308.5000	0.96005	0.000480971	0.246026	280.267
308.0000	0.957691	0.000484671	0.248981	280.592
307.5000	0.786012	0.000473373	0.252743	280.986
307.0000	0.712392	0.000463901	0.256581	281.366
306.5000	0.51437	0.000474747	0.260732	281.777
306.0000	0.589615	0.000465839	0.265163	282.201
305.5000	0.542778	0.000451144	0.269933	282.683
305.0000	0.577255	0.00045006	0.274753	283.159
304.5000	0.435014	0.000449818	0.280424	283.701
304.0000	0.375661	0.00044677	0.286712	284.291
303.5000	0.299549	0.000445021	0.293039	284.888
303.0000	0.181055	0.00043235	0.299982	285.564
302.5000	0.183385	0.000426173	0.307221	286.274
302.0000	-0.00751756	0.00042685	0.315034	287.02
301.5000	-0.13082	0.000422585	0.323402	287.816
301.0000	-0.164383	0.000423767	0.331754	288.632
300.5000	-0.366794	0.000418419	0.339289	289.373
300.0000	-0.453472	0.000410711	0.348693	290.266
299.5000	-0.551978	0.000414501	0.357589	291.124
299.0000	-0.66607	0.000416324	0.366459	291.996
298.5000	-0.709009	0.000410948	0.375618	292.908
298.0000	-0.680324	0.000397029	0.384565	293.791
297.5000	-0.699301	0.000397641	0.393676	294.687
297.0000	-0.859668	0.000402399	0.402195	295.484
296.5000	-1.02647	0.000408498	0.410263	296.259
296.0000	-1.32498	0.000390813	0.418082	297.016
295.5000	-1.29683	0.000389192	0.425845	297.743
295.0000	-1.46138	0.000403746	0.43299	298.394
294.5000	-1.64152	0.000411154	0.439915	299.039
294.0000	-1.81647	0.000406884	0.446736	299.717
293.5000	-1.9268	0.000396902	0.451991	300.258
293.0000	-2.14985	0.000412807	0.457624	300.831
292.5000	-2.14551	0.000413445	0.462939	301.394
292.0000	-2.1317	0.000442843	0.467582	301.905
291.5000	-2.31631	0.000444584	0.472176	302.399
291.0000	-2.36158	0.000441669	0.476547	302.87
290.5000	-2.46974	0.000442541	0.480998	303.343
290.0000	-2.70532	0.00046086	0.485092	303.763
289.5000	-3.11945	0.000451753	0.488805	304.174
289.0000	-3.30197	0.00045206	0.492364	304.578
288.5000	-3.3524	0.000443122	0.496083	305.009
288.0000	-3.50092	0.000445677	0.499713	305.436
287.5000	-3.36718	0.00047994	0.503557	305.895
287.0000	-3.53726	0.000480011	0.507322	306.389
286.5000	-3.56054	0.000488615	0.5107	306.865
286.0000	-3.63508	0.000481598	0.514083	307.305
285.5000	-3.52837	0.000504595	0.517884	307.736
285.0000	-3.6792	0.000510669	0.521854	308.189
284.5000	-3.84573	0.000525467	0.525425	308.605
284.0000	-4.00985	0.000521618	0.529479	309.068
283.5000	-4.29896	0.000503048	0.533826	309.548
283.0000	-4.5383	0.000506327	0.537984	310.013
282.5000	-4.6166	0.000522443	0.542603	310.523
282.0000	-4.70333	0.000530496	0.547239	311.068
281.5000	-4.9529	0.000510748	0.551684	311.597
281.0000	-4.95144	0.000532674	0.55645	312.139
280.5000	-5.19173	0.000539494	0.561586	312.743
280.0000	-5.3847	0.00056981	0.567158	313.388
279.5000	-5.5364	0.000585755	0.57298	314.069
279.0000	-5.95295	0.000587381	0.578609	314.74
278.5000	-6.1889	0.0005893	0.585091	315.493
278.0000	-6.46182	0.000583234	0.593006	316.353
277.5000	-6.64375	0.000595013	0.600608	317.18
277.0000	-6.99306	0.000605192	0.608859	318.104
276.5000	-7.02055	0.000620428	0.617502	319.086
276.0000	-7.24603	0.000628946	0.625908	320.03
275.5000	-7.49793	0.000635621	0.635895	321.122
275.0000	-7.54578	0.000649534	0.646497	322.285
274.5000	-7.84555	0.0006607	0.657614	323.527
274.0000	-8.19471	0.000666241	0.669838	324.92
273.5000	-8.73668	0.000657125	0.681893	326.259
273.0000	-9.07675	0.00067726	0.695507	327.765
272.5000	-9.41691	0.000704394	0.709801	329.359
272.0000	-9.84191	0.000687176	0.724813	331.051
271.5000	-10.2317	0.000694985	0.741569	332.943
271.0000	-10.7268	0.000679575	0.75887	334.866
270.5000	-10.9905	0.000686334	0.777274	336.898
270.0000	-11.3908	0.000721981	0.796202	339.033
269.5000	-11.7069	0.000761906	0.816023	341.312
269.0000	-12.4312	0.000765337	0.83602	343.605
268.5000	-13.0548	0.000763598	0.858414	346.168
268.0000	-13.7499	0.000733223	0.882233	348.893
267.5000	-14.3612	0.000718802	0.907206	351.773
267.0000	-15.0333	0.000732202	0.934294	354.951
266.5000	-15.8593	0.000743791	0.962343	358.285
266.0000	-16.3382	0.000730937	0.989091	361.432
265.5000	-16.9236	0.000746946	1.01812	364.841
265.0000	-17.5147	0.000719261	1.04906	368.548
264.5000	-18.0438	0.000729063	1.07884	372.173
264.0000	-18.8242	0.000706498	1.10879	375.849
263.5000	-19.2364	0.000727161	1.14042	379.736
263.0000	-19.5779	0.000700672	1.16886	383.266
262.5000	-20.1067	0.000711316	1.19984	387.188
262.0000	-20.7747	0.00071134	1.22891	390.95
261.5000	-20.4994	0.000703777	1.25778	394.687
261.0000	-20.4186	0.000687027	1.28521	398.219
260.5000	-20.2822	0.000647944	1.31347	401.911
260.0000	-20.523	0.000671312	1.34132	405.603
259.5000	-20.3838	0.000712886	1.36876	409.291
259.0000	-20.4052	0.000689479	1.39563	412.967
258.5000	-20.8706	0.000669553	1.42263	416.649
258.0000	-21.1377	0.000665399	1.44953	420.346
257.5000	-20.8464	0.000685918	1.47498	423.872
257.0000	-19.9661	0.000742742	1.50195	427.637
256.5000	-20.3681	0.000762991	1.52755	431.231
256.0000	-20.5457	0.000737889	1.55478	435.059
255.5000	-20.0594	0.000751706	1.58242	438.952
255.0000	-19.882	0.000758764	1.61027	442.916
254.5000	-20.0344	0.000726679	1.63681	446.724
254.0000	-20.1055	0.000691663	1.66348	450.568
253.5000	-19.3922	0.00065045	1.69336	454.839
253.0000	-20.4214	0.000653522	1.72002	458.71
252.5000	-20.3865	0.000699291	1.75837	464.39
252.0000	-20.8835	0.000702819	1.7894	469.014
251.5000	-21.1512	0.000629633	1.81583	472.965
251.0000	-20.233	0.000601172	1.84184	476.835
250.5000	-19.3129	0.000631936	1.86683	480.615
250.0000	-20.1019	0.00054565	1.88954	484.101
249.5000	-20.0372	0.000516604	1.91117	487.459
249.0000	-20.7849	0.000478242	1.93301	490.87
248.5000	-22.3012	0.000417811	1.95309	493.999
248.0000	-21.6419	0.000405392	1.97334	497.19
247.5000	-22.3771	0.000404601	1.99186	500.155
247.0000	-21.8207	0.000445371	2.01065	503.202
246.5000	-21.7984	0.000385333	2.02917	506.196
246.0000	-21.2979	0.000409489	2.04741	509.138
245.5000	-21.1033	0.000397217	2.06584	512.199
245.0000	-20.9758	0.00035947	2.08449	515.307
244.5000	-21.9809	0.000339359	2.10362	518.491
244.0000	-21.499	0.000268259	2.12294	521.751
243.5000	-21.2509	0.000348864	2.14198	525
243.0000	-22.427	0.000518341	2.16153	528.387
242.5000	-25.0045	0.000369713	2.18428	532.355
242.0000	-22.7731	0.000593422	2.20495	535.982
241.5000	-22.9696	0.000645797	2.22938	540.281
241.0000	-23.3997	0.000560728	2.2533	544.502
240.5000	-23.1457	0.000583678	2.28134	549.547
240.0000	-23.6689	0.000614616	2.30869	554.483
239.5000	-25.1117	0.000551027	2.34289	560.685
239.0000	-24.4086	0.000339197	2.37498	566.506
238.5000	-23.9802	0.000314439	2.41131	573.147
238.0000	-25.164	0.000306868	2.45202	580.705
237.5000	-27.0246	0.000423299	2.49131	588.087
237.0000	-28.9611	0.000394999	2.53533	596.43
236.5000	-30.3971	0.000351412	2.58211	605.383
236.0000	-30.3912	0.000275481	2.62895	614.431
235.5000	-31.4935	0.000131078	2.68587	625.606
235.0000	-31.2001	7.41718E-005	2.72635	633.655
234.5000	-30.4186	-0.000122495	2.77107	642.623
234.0000	-31.1487	-5.79559E-005	2.81999	652.535
233.5000	-32.1444	-0.000260724	2.8764	664.079
233.0000	-31.6808	-0.000119244	2.9369	676.662
232.5000	-30.9335	-0.000287963	2.99531	689.065
232.0000	-31.9476	-0.000236227	3.06346	703.848
231.5000	-29.1358	-0.000383187	3.11901	716.171
231.0000	-27.1703	-0.000475963	3.17997	729.968
230.5000	-25.3968	-0.000445739	3.23941	743.782
230.0000	-23.3986	-0.000289164	3.29386	756.8
229.5000	-23.5165	-0.00029171	3.34871	770.21
229.0000	-25.5785	-0.000555598	3.40035	783.2
228.5000	-22.5105	-0.00051631	3.44888	795.697
228.0000	-18.0085	-0.000530923	3.49157	807.015
227.5000	-15.3628	-0.000184534	3.53231	818.277
227.0000	-16.1497	-0.000328312	3.5689	828.782
226.5000	-12.7959	-0.000377791	3.60258	838.884
226.0000	-16.0234	-0.000314046	3.62896	847.256
225.5000	-13.6901	-0.000324107	3.65249	855.233
225.0000	-13.4626	-0.000335656	3.67137	862.346
224.5000	-12.4052	-0.000460406	3.68586	868.556
224.0000	-7.90714	-0.000186315	3.69644	873.881
223.5000	-5.47389	-0.000185947	3.70373	878.395
223.0000	-3.61866	-0.000204728	3.70775	882.117
222.5000	-2.84438	-0.000183242	3.70822	885.684
222.0000	-3.65644	-1.80001E-005	3.70544	888.212
221.5000	-3.17735	-9.9963E-006	3.69962	890.195
221.0000	4.95052	0.000335206	3.693	891.506
220.5000	6.11655	0.000217539	3.68498	892.513
220.0000	2.93023	-1.79828E-005	3.67545	893.331

##### Extended Information
[Comments]
Sample name	JS187+JS190_5E-5_H2O_90-10
Comment
User
Division
Company	Labo systeme complexes hors equilibre

[Detailed Information]
Creation date	1/23/2024 12:06 PM

Data array type	Linear data array * 4
Horizontal axis	Wavelength [nm]
Vertical axis(1)	CD [mdeg]
Vertical axis(2)	LD [dOD]
Vertical axis(3)	Abs
Vertical axis(4)	HT [V]
Start	700 nm
End	220 nm
Data interval	0.5 nm
Data points	961     

[Measurement Information]
Instrument name	CD Jasco
Model name	J-1500
Serial No.	A005261638

Detector	PM-539
Detector S/N	A0052PM539
  Lock-in amp.	X mode
  HT volt	Auto

Detector	EXPML-535
Detector S/N	A0001
  Lock-in amp.	X mode
  HT volt	Auto

Measurement date	1/23/2024 12:06 PM

Overload detect	1
Photometric mode	CD, LD, Abs, HT
Measure range	700 - 220 nm
Data pitch	0.5 nm
CD scale	200 mdeg/1.0 dOD
FL scale	200 mdeg/1.0 dOD
D.I.T.	1 sec
Bandwidth	1.00 nm
Start mode	Immediately
Scanning speed	500 nm/min
Baseline correction	Baseline
Shutter control	Auto


