TITLE	JS187+JS190_5E-5_H2O_40-60
DATA TYPE	
ORIGIN	JASCO
OWNER	
DATE	24/01/23
TIME	11:25:25
SPECTROMETER/DATA SYSTEM	
LOCALE	1033
RESOLUTION	
DELTAX	-0.5
XUNITS	NANOMETERS
YUNITS	CD [mdeg]
Y2UNITS	LD [dOD]
Y3UNITS	ABSORBANCE
Y4UNITS	HT [V]
FIRSTX	  700.0000
LASTX	  220.0000
NPOINTS	     961
FIRSTY	     1.34645
MAXY	     8.66536
MINY	   -12.32721
XYDATA
700.0000	1.34645	0.000150413	-0.0571555	298.918
699.5000	1.07156	0.000139753	-0.058227	298.615
699.0000	0.946765	0.000135747	-0.0595993	298.24
698.5000	1.09602	0.000144593	-0.0603795	297.836
698.0000	1.05514	0.000140836	-0.0615769	297.394
697.5000	0.81573	0.000152682	-0.0632611	296.932
697.0000	0.672869	0.000164279	-0.0653314	296.417
696.5000	0.647349	0.000175986	-0.0665901	295.895
696.0000	0.533073	0.000172114	-0.0670606	295.332
695.5000	0.591637	0.000152814	-0.0671443	294.807
695.0000	0.450133	0.00013585	-0.0665694	294.344
694.5000	0.434973	0.000140715	-0.0657711	293.923
694.0000	0.529773	0.000134523	-0.0638008	293.535
693.5000	0.58781	0.000144873	-0.0614735	293.185
693.0000	0.43409	0.000144975	-0.0584973	292.893
692.5000	0.119133	0.000139492	-0.0554813	292.628
692.0000	0.0983202	0.000167121	-0.052493	292.4
691.5000	0.145547	0.00015669	-0.049452	292.187
691.0000	0.300574	0.000157543	-0.0464558	291.988
690.5000	0.258474	0.000176998	-0.0444697	291.798
690.0000	0.374309	0.000172081	-0.0425851	291.646
689.5000	0.401976	0.000176507	-0.0403088	291.553
689.0000	0.245391	0.000172545	-0.0369025	291.548
688.5000	0.344531	0.000161666	-0.0331929	291.65
688.0000	0.126231	0.000176133	-0.0288406	291.838
687.5000	0.0143922	0.000180361	-0.0242055	292.1
687.0000	-0.136163	0.000182088	-0.0204901	292.354
686.5000	-0.0418567	0.000194549	-0.0176356	292.618
686.0000	-0.101145	0.000173911	-0.0165198	292.851
685.5000	-0.129701	0.000187318	-0.016486	293.086
685.0000	-0.172819	0.00018688	-0.0168859	293.316
684.5000	-0.198486	0.000184249	-0.0178852	293.533
684.0000	0.242366	0.00018515	-0.0193399	293.744
683.5000	0.192038	0.000177549	-0.0202228	293.971
683.0000	0.0326817	0.000196717	-0.0210346	294.217
682.5000	-0.184689	0.000180279	-0.0212333	294.477
682.0000	0.0219071	0.00016938	-0.0214274	294.773
681.5000	-0.187425	0.000148069	-0.0212833	295.055
681.0000	-0.0337281	0.00014861	-0.0214875	295.317
680.5000	0.207939	0.000148757	-0.022271	295.501
680.0000	0.187241	0.000157371	-0.0245178	295.616
679.5000	0.296692	0.000152359	-0.0274617	295.66
679.0000	0.315145	0.000160565	-0.0313487	295.661
678.5000	0.436862	0.000160544	-0.0339444	295.65
678.0000	0.60595	0.000171993	-0.0363071	295.621
677.5000	0.79535	0.000187033	-0.037712	295.592
677.0000	0.620195	0.000198765	-0.0382785	295.57
676.5000	0.84781	0.000198779	-0.0381579	295.542
676.0000	0.605997	0.000193028	-0.0379052	295.523
675.5000	0.574303	0.000194704	-0.0375524	295.514
675.0000	0.578159	0.000196299	-0.0369421	295.514
674.5000	0.524192	0.000190048	-0.0358401	295.53
674.0000	0.384838	0.000208925	-0.0347753	295.544
673.5000	0.740765	0.000228653	-0.0336707	295.563
673.0000	0.625236	0.000247455	-0.0334019	295.597
672.5000	0.374474	0.000227135	-0.0331254	295.642
672.0000	0.502538	0.000243777	-0.0326204	295.686
671.5000	0.57016	0.00023043	-0.0316823	295.727
671.0000	0.586377	0.000234522	-0.0304174	295.803
670.5000	0.582863	0.00023848	-0.0290663	295.868
670.0000	0.378696	0.000253292	-0.0279293	295.937
669.5000	0.436315	0.000256412	-0.0272633	296.014
669.0000	0.398756	0.000261416	-0.0265321	296.096
668.5000	0.587037	0.000235739	-0.0256962	296.191
668.0000	0.404593	0.000236953	-0.0250957	296.296
667.5000	0.411974	0.000228986	-0.0246796	296.401
667.0000	0.454544	0.000224057	-0.0244548	296.514
666.5000	0.557366	0.000226396	-0.0242623	296.623
666.0000	0.653599	0.000250243	-0.024754	296.743
665.5000	0.496042	0.000236801	-0.0246707	296.878
665.0000	0.486338	0.000217317	-0.0238716	297.004
664.5000	0.701928	0.000227162	-0.0228244	297.125
664.0000	0.53626	0.000219862	-0.0225677	297.237
663.5000	0.553373	0.000220251	-0.023375	297.34
663.0000	0.594624	0.000204872	-0.0236532	297.414
662.5000	0.774653	0.000223691	-0.0239307	297.492
662.0000	0.838562	0.000201982	-0.0242859	297.559
661.5000	0.903474	0.000180292	-0.0241236	297.612
661.0000	0.922474	0.000166362	-0.0243911	297.651
660.5000	0.906543	0.000180868	-0.0248281	297.682
660.0000	1.06025	0.000192763	-0.0250548	297.699
659.5000	0.891213	0.000200071	-0.0257772	297.7
659.0000	0.906554	0.00019318	-0.0263623	297.679
658.5000	0.636734	0.000176572	-0.0268091	297.637
658.0000	0.719889	0.000166915	-0.0269326	297.575
657.5000	0.879648	0.000176906	-0.027772	297.48
657.0000	0.599333	0.000168274	-0.0276615	297.371
656.5000	0.627646	0.000169687	-0.0288231	297.227
656.0000	0.869119	0.000193898	-0.0298048	297.075
655.5000	0.842563	0.000182008	-0.0291997	296.923
655.0000	0.738777	0.00018258	-0.0291437	296.77
654.5000	0.709551	0.000164591	-0.0295179	296.626
654.0000	0.701075	0.000164844	-0.0290778	296.481
653.5000	0.666787	0.000188314	-0.0278205	296.355
653.0000	0.708447	0.000193254	-0.0261139	296.252
652.5000	0.686597	0.000206331	-0.0244291	296.173
652.0000	0.937915	0.000205241	-0.0225448	296.122
651.5000	0.79781	0.0002102	-0.0199687	296.118
651.0000	0.80945	0.000201545	-0.0170071	296.134
650.5000	0.876619	0.000220081	-0.0147734	296.177
650.0000	1.14181	0.000213525	-0.0121025	296.246
649.5000	0.945989	0.000222369	-0.00995448	296.341
649.0000	0.994576	0.000231656	-0.00766144	296.448
648.5000	1.14628	0.000218619	-0.00616235	296.591
648.0000	1.31702	0.00021178	-0.00416907	296.77
647.5000	1.01494	0.000232178	-0.00233829	296.959
647.0000	0.997142	0.00024581	-0.00139347	297.138
646.5000	0.956085	0.000252771	-0.000704141	297.313
646.0000	0.99072	0.00022941	0.000856254	297.489
645.5000	0.905303	0.000245765	0.00153075	297.653
645.0000	0.810746	0.000225905	0.000964728	297.796
644.5000	0.709524	0.000231506	0.000612543	297.912
644.0000	0.693794	0.000242426	0.000341313	297.999
643.5000	0.604777	0.000225827	-0.000399622	298.053
643.0000	0.866491	0.000232908	-0.001211	298.073
642.5000	1.08681	0.000221308	-0.00182272	298.083
642.0000	1.10678	0.000237435	-0.00216445	298.081
641.5000	1.15594	0.000227409	-0.00256735	298.067
641.0000	1.13837	0.000219297	-0.00274046	298.028
640.5000	1.07021	0.000218268	-0.00241781	297.984
640.0000	1.05383	0.000231703	-0.00200216	297.917
639.5000	1.06453	0.000226859	-0.00134102	297.831
639.0000	1.05933	0.000218091	-0.00085309	297.743
638.5000	1.03587	0.000199825	0.000192049	297.656
638.0000	1.13861	0.000222958	0.000813512	297.582
637.5000	1.17452	0.000237858	0.00113754	297.498
637.0000	1.26102	0.000242333	0.00226615	297.405
636.5000	1.25919	0.000224298	0.0032344	297.326
636.0000	1.29352	0.000204458	0.00363876	297.26
635.5000	1.53534	0.00022442	0.00409563	297.191
635.0000	1.43232	0.000226724	0.00514627	297.142
634.5000	1.23086	0.000224209	0.00610204	297.098
634.0000	0.925784	0.00021743	0.00687414	297.048
633.5000	0.857559	0.000218844	0.00724283	296.999
633.0000	0.845515	0.000225312	0.00813749	296.953
632.5000	0.856277	0.000224702	0.00837412	296.905
632.0000	1.02915	0.000226142	0.00854828	296.852
631.5000	0.992308	0.000237639	0.00919799	296.816
631.0000	1.23985	0.000252105	0.00972087	296.774
630.5000	1.29093	0.000258026	0.0103519	296.742
630.0000	1.35752	0.000269383	0.0108004	296.686
629.5000	1.50981	0.000257071	0.0113897	296.63
629.0000	1.64514	0.000269757	0.0117181	296.573
628.5000	1.57448	0.000269042	0.01193	296.523
628.0000	1.55328	0.000294901	0.0121562	296.448
627.5000	1.46249	0.000297487	0.0128143	296.382
627.0000	1.1592	0.000285033	0.012945	296.314
626.5000	1.29355	0.000280974	0.0128116	296.251
626.0000	1.40168	0.000277719	0.0127486	296.187
625.5000	1.44867	0.000283781	0.0134049	296.131
625.0000	1.45515	0.000278263	0.014285	296.091
624.5000	1.45042	0.000281118	0.0151513	296.051
624.0000	1.38093	0.000293844	0.0159494	296.026
623.5000	1.34741	0.000300526	0.0169547	296.024
623.0000	1.13616	0.000294409	0.0178237	296.025
622.5000	1.09513	0.000306971	0.0188459	296.038
622.0000	1.00769	0.000302293	0.0195535	296.058
621.5000	1.10075	0.00030836	0.0204287	296.099
621.0000	1.01286	0.00030888	0.0212147	296.137
620.5000	0.891333	0.000293583	0.0217465	296.187
620.0000	0.937434	0.000298315	0.0222127	296.253
619.5000	1.0302	0.000293946	0.0230583	296.346
619.0000	1.18703	0.000296686	0.0243655	296.455
618.5000	1.30399	0.000289507	0.0259901	296.57
618.0000	0.999676	0.000293722	0.0276454	296.69
617.5000	1.36743	0.000314167	0.0283797	296.825
617.0000	1.30598	0.000349747	0.0287623	296.959
616.5000	1.49383	0.00033816	0.0291113	297.085
616.0000	1.74473	0.000346538	0.0299335	297.213
615.5000	1.79088	0.000331066	0.0304058	297.346
615.0000	1.91774	0.000328248	0.0307955	297.479
614.5000	2.14932	0.000327281	0.0309457	297.607
614.0000	2.12874	0.000319865	0.0311616	297.737
613.5000	2.33958	0.000314909	0.0314567	297.853
613.0000	2.19272	0.000315805	0.031852	297.994
612.5000	2.16291	0.000314438	0.0322656	298.128
612.0000	2.45589	0.000323787	0.0327947	298.261
611.5000	2.38634	0.000327471	0.0335735	298.388
611.0000	2.28739	0.000321534	0.0337338	298.506
610.5000	2.42831	0.000333197	0.0339183	298.633
610.0000	2.62682	0.000328825	0.0339244	298.75
609.5000	2.43812	0.000327092	0.0344657	298.857
609.0000	2.31934	0.000309556	0.0349517	298.956
608.5000	2.39114	0.000290442	0.0357677	299.05
608.0000	2.10342	0.00030076	0.0361589	299.134
607.5000	1.92384	0.000279633	0.0361563	299.221
607.0000	2.12905	0.000280275	0.0365447	299.309
606.5000	1.96946	0.000283497	0.0371066	299.401
606.0000	1.77254	0.000286205	0.0382288	299.48
605.5000	1.65266	0.000300127	0.0391864	299.572
605.0000	1.45834	0.000313	0.0403774	299.653
604.5000	1.58475	0.000328942	0.0412281	299.722
604.0000	1.36097	0.000329172	0.042331	299.789
603.5000	1.26454	0.000333836	0.0437215	299.867
603.0000	1.379	0.000347297	0.0446531	299.94
602.5000	1.34719	0.000332184	0.0460404	300.011
602.0000	1.59267	0.000338431	0.0474591	300.068
601.5000	1.69764	0.000336144	0.0487638	300.126
601.0000	1.44575	0.000332296	0.0500393	300.181
600.5000	1.51469	0.000344194	0.0519973	300.249
600.0000	1.42294	0.000354398	0.0535886	300.306
599.5000	1.41074	0.000371183	0.055921	300.348
599.0000	1.39974	0.000394913	0.0578159	300.383
598.5000	1.39794	0.00040461	0.0602922	300.415
598.0000	1.54166	0.00040243	0.062306	300.444
597.5000	1.39318	0.000395826	0.064305	300.488
597.0000	1.39515	0.000390385	0.0665039	300.523
596.5000	1.10975	0.000372601	0.0688746	300.55
596.0000	1.19755	0.000382025	0.07137	300.582
595.5000	1.50252	0.00036751	0.0736782	300.613
595.0000	1.30844	0.000351848	0.0761311	300.619
594.5000	1.32156	0.000369553	0.0789308	300.658
594.0000	1.2259	0.000375049	0.0811531	300.694
593.5000	0.986516	0.000371813	0.0839066	300.726
593.0000	1.00589	0.000374792	0.0872416	300.781
592.5000	1.15003	0.00037726	0.0900409	300.851
592.0000	1.07765	0.000386253	0.0929569	300.954
591.5000	0.965527	0.000382254	0.0954494	301.045
591.0000	0.97355	0.000391967	0.098607	301.155
590.5000	1.04118	0.000382488	0.101579	301.288
590.0000	1.09469	0.000378212	0.104848	301.44
589.5000	1.22212	0.000369482	0.10844	301.608
589.0000	1.19417	0.000378005	0.112037	301.782
588.5000	1.32793	0.000384931	0.115774	301.993
588.0000	1.29029	0.000382785	0.11987	302.224
587.5000	1.19036	0.000396801	0.123992	302.473
587.0000	1.16839	0.000388985	0.128329	302.779
586.5000	1.03194	0.000381133	0.132466	303.075
586.0000	0.76606	0.000374926	0.137181	303.376
585.5000	0.785029	0.00038203	0.141861	303.726
585.0000	0.815496	0.000395314	0.146537	304.092
584.5000	0.863036	0.000414233	0.151168	304.455
584.0000	0.577136	0.000409678	0.15659	304.869
583.5000	0.423786	0.000406705	0.162208	305.3
583.0000	0.263925	0.000402743	0.168642	305.789
582.5000	-0.0153291	0.000404296	0.174912	306.301
582.0000	-0.294689	0.000398384	0.18129	306.821
581.5000	-0.488415	0.000436427	0.188171	307.395
581.0000	-0.708647	0.000441174	0.195705	308.008
580.5000	-0.789345	0.000458085	0.203447	308.647
580.0000	-0.963992	0.000457825	0.211123	309.3
579.5000	-1.21379	0.000470917	0.21902	309.99
579.0000	-1.45396	0.00048654	0.227243	310.701
578.5000	-1.73787	0.000495079	0.236082	311.433
578.0000	-1.72433	0.000534725	0.245087	312.213
577.5000	-1.77004	0.000561205	0.254292	313.071
577.0000	-2.08958	0.000567586	0.264215	313.914
576.5000	-2.35788	0.000581435	0.275233	314.861
576.0000	-2.52058	0.000594285	0.286128	315.804
575.5000	-2.80811	0.000627259	0.297715	316.803
575.0000	-2.92165	0.000626486	0.3083	317.762
574.5000	-3.30983	0.000663311	0.320144	318.816
574.0000	-3.48146	0.000667741	0.332242	319.87
573.5000	-3.68034	0.000696028	0.344647	320.968
573.0000	-4.0593	0.000694676	0.35749	322.161
572.5000	-4.15707	0.000702537	0.369709	323.303
572.0000	-4.49417	0.000732577	0.383517	324.613
571.5000	-4.92178	0.000753577	0.39736	325.909
571.0000	-5.10789	0.000764578	0.412718	327.302
570.5000	-5.49619	0.000792369	0.428079	328.754
570.0000	-5.97878	0.000789378	0.442981	330.178
569.5000	-6.38394	0.000790255	0.45926	331.683
569.0000	-7.01157	0.000815601	0.475692	333.205
568.5000	-7.51793	0.000835968	0.490917	334.675
568.0000	-8.26515	0.000832605	0.506491	336.216
567.5000	-8.61178	0.000842091	0.522296	337.778
567.0000	-9.11169	0.000850358	0.537941	339.29
566.5000	-9.20508	0.000854126	0.553398	340.769
566.0000	-9.54161	0.000882613	0.568658	342.232
565.5000	-9.83079	0.000885157	0.583412	343.684
565.0000	-10.278	0.000871305	0.59809	345.097
564.5000	-10.8762	0.000863685	0.612618	346.492
564.0000	-11.1811	0.000874722	0.62614	347.755
563.5000	-11.3801	0.000893113	0.63879	348.965
563.0000	-11.6666	0.000906508	0.651511	350.216
562.5000	-11.9677	0.00087553	0.663243	351.343
562.0000	-11.9667	0.000880544	0.674391	352.406
561.5000	-12.2572	0.000875319	0.686436	353.514
561.0000	-12.3272	0.000887469	0.697254	354.537
560.5000	-12.1017	0.000895765	0.707303	355.49
560.0000	-12.1207	0.000871112	0.716865	356.364
559.5000	-11.5266	0.000883018	0.725823	357.127
559.0000	-11.4317	0.000884225	0.733434	357.772
558.5000	-11.5848	0.00083797	0.739656	358.306
558.0000	-11.6697	0.000810073	0.744743	358.729
557.5000	-11.5427	0.000798799	0.749716	359.104
557.0000	-11.4841	0.00079795	0.753908	359.379
556.5000	-11.1188	0.000802604	0.756827	359.567
556.0000	-10.9369	0.00080769	0.758473	359.673
555.5000	-10.9577	0.000770532	0.759713	359.697
555.0000	-10.4948	0.000753546	0.76036	359.636
554.5000	-10.1202	0.000756995	0.760604	359.488
554.0000	-10.1242	0.000742274	0.759726	359.28
553.5000	-9.89832	0.000739957	0.758241	359.004
553.0000	-9.81537	0.000732937	0.75635	358.695
552.5000	-9.61643	0.000719282	0.754467	358.333
552.0000	-9.2499	0.000712112	0.751998	357.901
551.5000	-9.29917	0.000710799	0.749239	357.452
551.0000	-9.22103	0.00069172	0.745835	356.977
550.5000	-9.23098	0.000703872	0.742234	356.465
550.0000	-9.00057	0.00072825	0.738599	355.92
549.5000	-8.72663	0.000725768	0.735211	355.382
549.0000	-8.61694	0.00073094	0.731084	354.83
548.5000	-8.30016	0.000724246	0.727099	354.305
548.0000	-8.34536	0.000723714	0.724121	353.762
547.5000	-8.57528	0.000723627	0.721416	353.274
547.0000	-8.69826	0.000706489	0.718785	352.773
546.5000	-8.79933	0.000718456	0.716168	352.341
546.0000	-8.67187	0.000692994	0.713066	351.932
545.5000	-8.31047	0.000696226	0.711277	351.549
545.0000	-8.0947	0.000698344	0.709809	351.249
544.5000	-7.8637	0.000691888	0.708554	350.962
544.0000	-7.75038	0.000700462	0.707515	350.745
543.5000	-7.69756	0.000737597	0.706979	350.569
543.0000	-7.69379	0.000734362	0.707102	350.447
542.5000	-7.76786	0.000753824	0.70777	350.353
542.0000	-7.79143	0.00074982	0.708617	350.314
541.5000	-8.07374	0.000761304	0.709933	350.345
541.0000	-8.14185	0.000735397	0.711587	350.436
540.5000	-8.37843	0.000743431	0.714257	350.56
540.0000	-8.23516	0.00075679	0.717519	350.731
539.5000	-8.13216	0.000784612	0.720825	350.962
539.0000	-8.15771	0.000774889	0.724507	351.27
538.5000	-7.94994	0.000769342	0.728887	351.632
538.0000	-8.0199	0.000772091	0.733788	352.006
537.5000	-8.36043	0.000781727	0.739277	352.455
537.0000	-8.75191	0.000766613	0.745102	352.964
536.5000	-9.02745	0.000766479	0.751202	353.487
536.0000	-9.48098	0.000754291	0.75813	354.082
535.5000	-9.58477	0.000743347	0.765208	354.703
535.0000	-9.81734	0.000770949	0.773083	355.392
534.5000	-9.7992	0.000770743	0.780576	356.054
534.0000	-9.74136	0.000752256	0.788673	356.785
533.5000	-9.67866	0.00076977	0.797039	357.572
533.0000	-9.81822	0.000784338	0.80512	358.339
532.5000	-9.78658	0.000794488	0.813449	359.143
532.0000	-9.6326	0.000781496	0.822499	360.011
531.5000	-9.88746	0.000774382	0.83198	360.914
531.0000	-10.0068	0.000763149	0.84241	361.856
530.5000	-9.84118	0.000790311	0.852189	362.772
530.0000	-10.0606	0.000777905	0.862303	363.745
529.5000	-9.74655	0.000759248	0.872064	364.682
529.0000	-9.83899	0.000780888	0.881517	365.555
528.5000	-9.76483	0.000801637	0.890819	366.438
528.0000	-9.25029	0.000790484	0.899677	367.277
527.5000	-9.30332	0.000750185	0.90895	368.134
527.0000	-9.27033	0.000718278	0.918965	369.061
526.5000	-8.99359	0.000700741	0.927994	369.92
526.0000	-8.89317	0.000708208	0.937749	370.826
525.5000	-8.62993	0.000715519	0.947164	371.694
525.0000	-8.14873	0.000720434	0.956149	372.519
524.5000	-7.74229	0.000725076	0.964548	373.268
524.0000	-7.69317	0.000713204	0.972272	373.948
523.5000	-7.69215	0.000701878	0.979684	374.63
523.0000	-7.67013	0.000701368	0.98667	375.265
522.5000	-7.19437	0.000732894	0.992982	375.855
522.0000	-7.19356	0.00070441	0.999516	376.439
521.5000	-6.81919	0.000722398	1.0061	377.004
521.0000	-6.58929	0.00073762	1.01215	377.531
520.5000	-6.55066	0.000713295	1.01789	378.025
520.0000	-6.47824	0.000727144	1.02289	378.446
519.5000	-6.62188	0.000718166	1.02804	378.855
519.0000	-6.13061	0.000724462	1.03266	379.233
518.5000	-5.88182	0.000733927	1.03655	379.565
518.0000	-5.78591	0.000700842	1.04095	379.916
517.5000	-5.77859	0.000675095	1.04513	380.232
517.0000	-5.62223	0.000670814	1.04939	380.532
516.5000	-5.36502	0.000659518	1.05365	380.827
516.0000	-5.37583	0.000694198	1.05745	381.096
515.5000	-5.54637	0.000669582	1.06068	381.351
515.0000	-5.19812	0.000652265	1.06373	381.575
514.5000	-4.50689	0.000642557	1.06666	381.799
514.0000	-3.99261	0.000628766	1.06939	381.992
513.5000	-3.87144	0.000598331	1.07229	382.193
513.0000	-3.5794	0.000577205	1.07482	382.394
512.5000	-2.98449	0.000573857	1.07779	382.616
512.0000	-3.08051	0.000546553	1.08061	382.814
511.5000	-2.63858	0.000555426	1.08296	383
511.0000	-2.64418	0.000544292	1.08537	383.174
510.5000	-2.46221	0.000556886	1.088	383.345
510.0000	-2.28864	0.000558372	1.09061	383.517
509.5000	-1.85702	0.000534613	1.09302	383.684
509.0000	-1.8234	0.000514667	1.09517	383.835
508.5000	-1.8628	0.00045883	1.09709	383.948
508.0000	-1.04131	0.000441976	1.0993	384.058
507.5000	-0.778954	0.000420997	1.10175	384.187
507.0000	-0.691907	0.000406157	1.10436	384.326
506.5000	-0.519674	0.000401632	1.10687	384.461
506.0000	-0.694447	0.000365169	1.10891	384.587
505.5000	-0.707895	0.00036151	1.11083	384.697
505.0000	-0.415295	0.000340888	1.11285	384.811
504.5000	-0.587674	0.000317355	1.11492	384.915
504.0000	-0.310077	0.000286124	1.11674	384.998
503.5000	0.128594	0.000283843	1.11836	385.063
503.0000	0.126592	0.000298399	1.12001	385.113
502.5000	0.394161	0.000296877	1.12127	385.141
502.0000	0.585057	0.000277809	1.12243	385.165
501.5000	0.17463	0.000270363	1.12341	385.145
501.0000	0.574547	0.000268025	1.12431	385.104
500.5000	0.832215	0.000285735	1.12521	385.035
500.0000	1.26285	0.00031698	1.12573	384.902
499.5000	0.765932	0.000275879	1.12539	384.697
499.0000	1.2756	0.000253674	1.12437	384.337
498.5000	1.25345	0.000264333	1.12292	383.838
498.0000	0.781093	0.000268544	1.12121	383.213
497.5000	1.37995	0.000274533	1.11979	382.443
497.0000	1.37137	0.000240282	1.11917	381.661
496.5000	1.48121	0.000246379	1.11974	380.94
496.0000	1.62323	0.000209523	1.12188	380.461
495.5000	1.67072	0.000205327	1.12402	380.123
495.0000	2.01491	0.000216328	1.1247	379.853
494.5000	2.25887	0.000199798	1.12446	379.595
494.0000	2.32631	0.000177668	1.12381	379.34
493.5000	2.43156	0.000167008	1.12286	379.048
493.0000	2.84993	0.000161295	1.12209	378.792
492.5000	3.02037	0.0001335	1.12123	378.528
492.0000	3.31824	0.000126789	1.12013	378.252
491.5000	3.85969	0.000149767	1.11887	378.006
491.0000	4.0432	0.000126033	1.11765	377.765
490.5000	4.52064	0.000129068	1.11647	377.57
490.0000	5.11111	0.00010301	1.11507	377.407
489.5000	5.27019	0.000115378	1.11333	377.271
489.0000	5.23973	0.000109634	1.11077	377.073
488.5000	5.44848	8.77642E-005	1.10686	376.737
488.0000	5.73193	9.67311E-005	1.10114	376.118
487.5000	6.05726	0.000120584	1.09505	375.284
487.0000	5.96898	9.23415E-005	1.09014	374.371
486.5000	6.31883	4.1555E-005	1.08491	373.294
486.0000	6.57864	4.67209E-005	1.08042	372.247
485.5000	6.92592	2.59826E-005	1.07772	371.28
485.0000	6.92861	1.49556E-005	1.07604	370.431
484.5000	7.11863	-1.1564E-005	1.07364	369.695
484.0000	6.84152	-3.87826E-005	1.07023	368.993
483.5000	6.73293	-6.16283E-005	1.06654	368.353
483.0000	7.01549	-5.01692E-005	1.06211	367.72
482.5000	6.87823	-6.33493E-005	1.05756	367.167
482.0000	7.09027	-5.89979E-005	1.05266	366.64
481.5000	7.32334	-8.01952E-005	1.04775	366.108
481.0000	7.79277	-0.000102227	1.0431	365.613
480.5000	8.09914	-0.000103701	1.03821	365.141
480.0000	8.0365	-9.09042E-005	1.0328	364.658
479.5000	7.66717	-0.000114796	1.02652	364.087
479.0000	7.76947	-0.000131469	1.01744	363.241
478.5000	8.04555	-0.000106801	1.00802	362.166
478.0000	7.87949	-0.000123265	1.00117	361.003
477.5000	7.87515	-0.000130195	0.998637	360.142
477.0000	7.69367	-0.00012709	0.99554	359.41
476.5000	7.98077	-0.000116873	0.987077	358.378
476.0000	7.93165	-0.000113857	0.977176	357.128
475.5000	8.3395	-8.65049E-005	0.967035	355.642
475.0000	8.4185	-0.000107748	0.957183	353.971
474.5000	8.44377	-0.00012634	0.948501	352.242
474.0000	8.66536	-0.000117034	0.940161	350.369
473.5000	8.52607	-0.000118691	0.931026	348.234
473.0000	8.37249	-9.95955E-005	0.922239	345.978
472.5000	8.31236	-7.69376E-005	0.915842	343.749
472.0000	8.22947	-6.51431E-005	0.913044	341.985
471.5000	8.46741	-0.000104156	0.910903	340.571
471.0000	8.44101	-0.000103629	0.909059	339.724
470.5000	8.29637	-9.96475E-005	0.907362	339.204
470.0000	8.27106	-0.000114281	0.904179	338.92
469.5000	8.02006	-0.000136309	0.896157	338.442
469.0000	8.06931	-0.000133101	0.882508	337.421
468.5000	8.12796	-0.000157794	0.87021	336.125
468.0000	8.0904	-0.000127751	0.86163	334.876
467.5000	7.75443	-0.000133158	0.855743	333.875
467.0000	7.66671	-0.000128662	0.851547	333.149
466.5000	7.78785	-0.000112967	0.847733	332.634
466.0000	7.53974	-0.000114065	0.842897	332.289
465.5000	7.46854	-0.000100109	0.837664	332.163
465.0000	7.33478	-0.000106723	0.831643	332.273
464.5000	7.35528	-0.000103042	0.822854	332.411
464.0000	7.15166	-9.04794E-005	0.810174	332.228
463.5000	7.26577	-9.15441E-005	0.795778	331.66
463.0000	7.28444	-5.09072E-005	0.782715	330.851
462.5000	7.08791	-6.50989E-005	0.772049	329.959
462.0000	6.96079	-5.70872E-005	0.763011	329.062
461.5000	7.15831	-3.12791E-005	0.755007	328.295
461.0000	6.90279	-2.48355E-005	0.747355	327.679
460.5000	6.72805	-4.17864E-006	0.739178	327.17
460.0000	6.67295	8.16112E-006	0.730922	326.741
459.5000	6.65007	-1.91651E-006	0.721867	326.326
459.0000	6.72817	1.84496E-005	0.710998	325.776
458.5000	6.43334	1.942E-005	0.699519	325.122
458.0000	6.28241	2.08093E-005	0.687147	324.27
457.5000	6.32048	2.96851E-005	0.674576	323.188
457.0000	6.12675	2.83486E-005	0.663528	322.023
456.5000	5.82	3.53317E-005	0.654737	320.958
456.0000	5.93818	4.96222E-005	0.644723	319.891
455.5000	5.65679	6.90612E-005	0.631686	318.552
455.0000	5.30993	8.0688E-005	0.620431	317.206
454.5000	5.06142	8.53072E-005	0.612631	316.066
454.0000	5.04764	0.000108144	0.605514	315.171
453.5000	5.20626	0.000126455	0.596109	314.363
453.0000	5.16939	0.000135312	0.58595	313.554
452.5000	5.17367	0.000165911	0.576057	312.728
452.0000	5.04597	0.000189502	0.566343	311.857
451.5000	4.813	0.000203821	0.556112	310.942
451.0000	4.91215	0.000229352	0.546455	310.075
450.5000	4.65544	0.000246752	0.53633	309.148
450.0000	4.47881	0.000266118	0.527628	308.31
449.5000	4.44687	0.000278333	0.520386	307.649
449.0000	4.42659	0.00027522	0.513567	307.154
448.5000	4.24312	0.000300398	0.504002	306.546
448.0000	4.34549	0.000313614	0.494172	305.852
447.5000	4.24734	0.000316392	0.487299	305.309
447.0000	4.14871	0.000315993	0.482386	305.018
446.5000	4.04295	0.000333337	0.475407	304.755
446.0000	4.07428	0.000344883	0.464171	304.217
445.5000	4.00618	0.000375677	0.453301	303.441
445.0000	3.72883	0.000384681	0.44418	302.556
444.5000	3.60459	0.000402466	0.435614	301.648
444.0000	3.64996	0.000417739	0.427348	300.742
443.5000	3.68379	0.000417723	0.419176	299.778
443.0000	3.64477	0.000417402	0.412526	298.945
442.5000	3.50175	0.000413403	0.406119	298.145
442.0000	3.44437	0.000424795	0.400362	297.481
441.5000	3.63868	0.000418726	0.39362	296.757
441.0000	3.40242	0.000432359	0.387342	296.095
440.5000	3.16512	0.000444353	0.38124	295.452
440.0000	3.19619	0.000450668	0.374766	294.781
439.5000	3.13396	0.000451719	0.368166	294.105
439.0000	3.12586	0.000474769	0.36087	293.372
438.5000	3.03608	0.000495189	0.353262	292.633
438.0000	2.95325	0.000506753	0.34564	291.913
437.5000	2.71106	0.000500443	0.338415	291.221
437.0000	2.72497	0.000501747	0.330986	290.531
436.5000	2.73839	0.00049668	0.325117	289.951
436.0000	2.63196	0.000511464	0.319613	289.423
435.5000	2.44898	0.000504932	0.313713	288.924
435.0000	2.35884	0.000524188	0.307199	288.406
434.5000	2.11566	0.000549701	0.300796	287.902
434.0000	2.13584	0.000562711	0.294435	287.368
433.5000	2.06369	0.00059719	0.288397	286.835
433.0000	1.98123	0.000601632	0.282565	286.27
432.5000	2.16776	0.000618087	0.276842	285.711
432.0000	2.17201	0.0006188	0.270875	285.135
431.5000	1.96112	0.000617292	0.26492	284.55
431.0000	2.05987	0.000622815	0.259324	283.985
430.5000	1.96312	0.000634747	0.253854	283.421
430.0000	1.77953	0.000638065	0.24884	282.885
429.5000	1.79771	0.000641271	0.243556	282.329
429.0000	1.84163	0.000654903	0.238342	281.776
428.5000	1.7845	0.000659618	0.233061	281.225
428.0000	1.69423	0.000660248	0.227472	280.672
427.5000	1.60313	0.000651486	0.22281	280.183
427.0000	1.55419	0.000670092	0.218254	279.693
426.5000	1.62935	0.000657241	0.213726	279.198
426.0000	1.71749	0.000666636	0.208868	278.654
425.5000	1.69829	0.000658717	0.204142	278.084
425.0000	1.4594	0.000644379	0.199328	277.498
424.5000	1.4271	0.000654263	0.194715	276.897
424.0000	1.45442	0.000646455	0.190755	276.339
423.5000	1.40911	0.000652476	0.187493	275.845
423.0000	1.23734	0.000650415	0.183964	275.394
422.5000	1.05767	0.000656052	0.180288	274.987
422.0000	1.16272	0.00065999	0.176499	274.6
421.5000	1.27875	0.000659407	0.172719	274.222
421.0000	1.28802	0.000657077	0.169344	273.876
420.5000	1.28608	0.000654358	0.165735	273.514
420.0000	1.19487	0.000650265	0.162213	273.144
419.5000	1.01052	0.00065802	0.158644	272.753
419.0000	1.0605	0.000655853	0.155202	272.384
418.5000	1.05053	0.000646359	0.151864	272.06
418.0000	0.73286	0.000655943	0.148835	271.74
417.5000	0.761395	0.000668571	0.145845	271.443
417.0000	0.656265	0.000668504	0.143354	271.176
416.5000	0.721243	0.00066486	0.141174	270.973
416.0000	0.677332	0.000667586	0.138539	270.792
415.5000	0.585673	0.000673934	0.135395	270.581
415.0000	0.487206	0.000669431	0.132239	270.333
414.5000	0.642928	0.000681818	0.129504	270.05
414.0000	0.70651	0.000682058	0.127327	269.774
413.5000	0.64497	0.000690794	0.125164	269.481
413.0000	0.355306	0.000686476	0.123237	269.223
412.5000	0.40782	0.000700545	0.121432	268.998
412.0000	0.403193	0.000714344	0.119858	268.803
411.5000	0.527564	0.000720715	0.117883	268.597
411.0000	0.628964	0.00072304	0.116182	268.418
410.5000	0.634641	0.000733794	0.114609	268.243
410.0000	0.677834	0.000738408	0.113205	268.083
409.5000	0.698183	0.000739282	0.111998	267.952
409.0000	0.696686	0.000736138	0.110657	267.827
408.5000	0.737123	0.000743544	0.109031	267.705
408.0000	0.60871	0.000759394	0.107246	267.583
407.5000	0.616334	0.000764928	0.105522	267.46
407.0000	0.575035	0.00074465	0.103887	267.318
406.5000	0.569828	0.000739047	0.102389	267.175
406.0000	0.448217	0.00073109	0.100802	267.019
405.5000	0.391815	0.000726999	0.0990674	266.857
405.0000	0.260261	0.000729214	0.0973855	266.676
404.5000	0.337301	0.000735377	0.095752	266.481
404.0000	0.164411	0.000733008	0.094539	266.268
403.5000	0.0550049	0.000738416	0.0932762	266.027
403.0000	-0.140059	0.000734249	0.0924462	265.781
402.5000	0.0120859	0.000744744	0.0913195	265.524
402.0000	-0.0966377	0.000751109	0.0907087	265.284
401.5000	-0.112918	0.000744853	0.0902483	265.028
401.0000	-0.0837191	0.000741605	0.0895982	264.794
400.5000	-0.0919404	0.00075066	0.089143	264.589
400.0000	-0.0491064	0.000746162	0.0886199	264.409
399.5000	-0.141495	0.000737966	0.0884784	264.228
399.0000	-0.105154	0.000755343	0.088469	264.091
398.5000	-0.185923	0.000760729	0.0881006	263.957
398.0000	-0.0856059	0.000780453	0.0877265	263.847
397.5000	-0.225357	0.000778073	0.0874933	263.773
397.0000	-0.183032	0.000779487	0.087592	263.725
396.5000	-0.241998	0.000775053	0.0875795	263.714
396.0000	-0.245315	0.000773064	0.0876494	263.728
395.5000	-0.135914	0.000767755	0.0871624	263.75
395.0000	-0.255244	0.000768398	0.0868036	263.799
394.5000	-0.164706	0.000779347	0.0867188	263.886
394.0000	-0.176554	0.000768331	0.0866604	263.997
393.5000	-0.191082	0.000774899	0.0864043	264.132
393.0000	-0.278629	0.000768473	0.0859049	264.273
392.5000	-0.223872	0.000780546	0.0854682	264.395
392.0000	-0.371686	0.000771289	0.0852508	264.501
391.5000	-0.374156	0.000777616	0.0853781	264.603
391.0000	-0.403708	0.000783289	0.0851924	264.68
390.5000	-0.581919	0.000772931	0.0849339	264.761
390.0000	-0.734436	0.00077908	0.0848894	264.85
389.5000	-0.589979	0.000783746	0.085098	264.923
389.0000	-0.523708	0.000790697	0.0855525	264.997
388.5000	-0.490092	0.000798927	0.0856052	265.051
388.0000	-0.480589	0.000813652	0.0856466	265.111
387.5000	-0.488452	0.000826359	0.0859432	265.162
387.0000	-0.632573	0.00083506	0.086784	265.217
386.5000	-0.670444	0.000830527	0.0875485	265.274
386.0000	-0.595962	0.000827916	0.0883429	265.319
385.5000	-0.743248	0.000819232	0.0892121	265.365
385.0000	-0.743839	0.000821072	0.0900333	265.402
384.5000	-0.861827	0.00082022	0.090906	265.441
384.0000	-0.968727	0.000816338	0.0918567	265.476
383.5000	-0.765984	0.0008262	0.0926024	265.516
383.0000	-0.616635	0.000829027	0.0932255	265.557
382.5000	-0.469478	0.000824539	0.094055	265.609
382.0000	-0.404754	0.000830607	0.0952204	265.652
381.5000	-0.420749	0.00081805	0.0965466	265.699
381.0000	-0.441037	0.000833681	0.0976672	265.755
380.5000	-0.382775	0.00082555	0.0984906	265.802
380.0000	-0.307446	0.000828251	0.0996942	265.861
379.5000	-0.308414	0.000825355	0.100921	265.919
379.0000	-0.31935	0.000812542	0.101726	265.972
378.5000	-0.277984	0.00081503	0.10217	266.021
378.0000	-0.21317	0.000818369	0.102616	266.065
377.5000	-0.285327	0.000815275	0.103207	266.108
377.0000	-0.117234	0.000828564	0.103625	266.136
376.5000	-0.114656	0.000836759	0.104281	266.162
376.0000	-0.0147722	0.000822228	0.105042	266.191
375.5000	0.0412502	0.000833536	0.105429	266.204
375.0000	0.106403	0.000836195	0.105797	266.207
374.5000	-0.190771	0.000827703	0.106281	266.213
374.0000	-0.291851	0.00083449	0.106664	266.206
373.5000	-0.344224	0.000833457	0.107006	266.204
373.0000	-0.265477	0.000828194	0.107089	266.2
372.5000	-0.259373	0.00082226	0.10717	266.187
372.0000	-0.125004	0.000834835	0.107368	266.18
371.5000	-0.114584	0.000833997	0.107479	266.172
371.0000	-0.152093	0.000821235	0.107791	266.168
370.5000	-0.0902699	0.000835341	0.108351	266.179
370.0000	-0.0281221	0.000830783	0.10881	266.196
369.5000	-0.0876879	0.00082043	0.109222	266.215
369.0000	0.00153644	0.000834865	0.109678	266.239
368.5000	-0.0384679	0.000832622	0.110286	266.271
368.0000	-0.111199	0.00082738	0.110766	266.317
367.5000	-0.167164	0.000840068	0.111239	266.356
367.0000	-0.0626192	0.000831165	0.112172	266.42
366.5000	-0.0344809	0.000823746	0.112856	266.491
366.0000	-0.110978	0.000823642	0.113305	266.552
365.5000	-0.0922135	0.000825161	0.113833	266.622
365.0000	-0.025008	0.000828503	0.114128	266.683
364.5000	-0.102592	0.000822716	0.114798	266.756
364.0000	-0.175161	0.000814169	0.115331	266.835
363.5000	-0.185921	0.000815052	0.1163	266.924
363.0000	-0.227733	0.000796125	0.117222	267.013
362.5000	-0.245098	0.00079117	0.118	267.102
362.0000	-0.250452	0.000778729	0.118603	267.179
361.5000	-0.289541	0.000792115	0.119324	267.25
361.0000	-0.348019	0.000791607	0.120212	267.338
360.5000	-0.485551	0.000795365	0.120816	267.421
360.0000	-0.416726	0.000795391	0.121502	267.502
359.5000	-0.416042	0.000793849	0.121872	267.563
359.0000	-0.480189	0.000772873	0.12213	267.634
358.5000	-0.462917	0.000782989	0.122203	267.7
358.0000	-0.49023	0.000774935	0.122385	267.771
357.5000	-0.465114	0.000784207	0.122568	267.844
357.0000	-0.280971	0.000791206	0.12294	267.912
356.5000	-0.0849621	0.000801369	0.123594	267.976
356.0000	0.00875718	0.000800627	0.123871	268.038
355.5000	0.159098	0.000802307	0.124076	268.097
355.0000	0.112679	0.000799177	0.124172	268.156
354.5000	0.062091	0.000808363	0.124211	268.212
354.0000	0.0678015	0.000812073	0.124326	268.265
353.5000	-0.0192995	0.000820093	0.124625	268.333
353.0000	-0.0518179	0.000813356	0.12478	268.396
352.5000	0.0447738	0.000798991	0.124909	268.455
352.0000	0.249512	0.000794649	0.125029	268.512
351.5000	0.294459	0.000800663	0.125156	268.566
351.0000	0.284638	0.000794547	0.1257	268.628
350.5000	0.413878	0.000802502	0.126306	268.685
350.0000	0.342864	0.000809038	0.127056	268.751
349.5000	0.272599	0.00079869	0.127935	268.82
349.0000	0.214051	0.000793985	0.128914	268.891
348.5000	0.141699	0.000782273	0.129988	268.963
348.0000	0.0817948	0.000771085	0.130696	269.026
347.5000	-0.0492198	0.000771153	0.13168	269.088
347.0000	-0.228971	0.000758876	0.132685	269.148
346.5000	-0.293976	0.000760955	0.133482	269.208
346.0000	-0.250149	0.000757275	0.134273	269.273
345.5000	-0.235814	0.000744586	0.135133	269.33
345.0000	-0.173615	0.000733679	0.136033	269.387
344.5000	0.00941261	0.000737204	0.137039	269.452
344.0000	-0.0706631	0.000739644	0.138098	269.507
343.5000	-0.141657	0.000718404	0.139049	269.575
343.0000	-0.0669911	0.000696281	0.13982	269.636
342.5000	0.0628346	0.000698881	0.140437	269.696
342.0000	-0.0172811	0.000689666	0.141074	269.762
341.5000	0.0514307	0.000680179	0.141719	269.819
341.0000	0.0521612	0.000692981	0.142522	269.872
340.5000	0.106785	0.000675952	0.143158	269.935
340.0000	0.0624696	0.000667885	0.14384	270.005
339.5000	0.205611	0.000659888	0.144285	270.076
339.0000	0.291829	0.000646918	0.144939	270.142
338.5000	0.370915	0.000634001	0.145688	270.21
338.0000	0.451756	0.000634829	0.146375	270.277
337.5000	0.553907	0.000642902	0.147123	270.357
337.0000	0.542815	0.000632896	0.147736	270.434
336.5000	0.42556	0.000627866	0.148545	270.51
336.0000	0.524634	0.000607452	0.149228	270.586
335.5000	0.696023	0.00061345	0.150012	270.671
335.0000	0.599501	0.000614714	0.150693	270.746
334.5000	0.599022	0.000607635	0.151444	270.836
334.0000	0.614295	0.000589119	0.152365	270.93
333.5000	0.579744	0.000581079	0.153738	271.033
333.0000	0.623454	0.000573788	0.154711	271.131
332.5000	0.489747	0.000557972	0.155364	271.228
332.0000	0.524192	0.000562995	0.156082	271.323
331.5000	0.608334	0.000562365	0.157033	271.419
331.0000	0.604783	0.000566445	0.158135	271.526
330.5000	0.679272	0.000571811	0.159009	271.632
330.0000	0.483324	0.00056438	0.159975	271.737
329.5000	0.514625	0.000559623	0.161134	271.861
329.0000	0.589735	0.000531088	0.162048	271.973
328.5000	0.583153	0.000521669	0.162954	272.073
328.0000	0.526647	0.000515488	0.163749	272.172
327.5000	0.318415	0.000510016	0.164657	272.264
327.0000	0.350366	0.00049929	0.165833	272.356
326.5000	0.345171	0.000496864	0.167286	272.471
326.0000	0.318052	0.00049334	0.168944	272.6
325.5000	0.344772	0.000492761	0.170351	272.728
325.0000	0.330992	0.000482244	0.171323	272.847
324.5000	0.51676	0.000470737	0.172603	272.98
324.0000	0.573147	0.000464716	0.174298	273.134
323.5000	0.52632	0.000450236	0.176062	273.283
323.0000	0.397585	0.000431169	0.177625	273.438
322.5000	0.255031	0.000408646	0.179112	273.591
322.0000	0.0638024	0.000387512	0.180519	273.749
321.5000	0.234395	0.000384344	0.182134	273.904
321.0000	0.133351	0.000371316	0.183879	274.067
320.5000	0.077483	0.000360502	0.185753	274.237
320.0000	0.188095	0.000361683	0.187446	274.404
319.5000	0.191118	0.000341984	0.189165	274.573
319.0000	0.302468	0.000348609	0.190882	274.766
318.5000	0.273588	0.00032853	0.192644	274.972
318.0000	0.19076	0.000301703	0.194065	275.143
317.5000	0.389616	0.000285601	0.195518	275.297
317.0000	0.289495	0.000274558	0.197277	275.453
316.5000	0.282601	0.00027267	0.199143	275.605
316.0000	0.284425	0.000251937	0.201194	275.777
315.5000	0.386343	0.000238145	0.20278	275.939
315.0000	0.42492	0.000227126	0.204486	276.123
314.5000	0.351477	0.000226319	0.206272	276.315
314.0000	0.559194	0.000230732	0.20815	276.505
313.5000	0.781135	0.0002155	0.210168	276.705
313.0000	0.993371	0.000200847	0.21217	276.914
312.5000	1.03495	0.000194124	0.213934	277.112
312.0000	0.990638	0.000179329	0.216051	277.324
311.5000	0.998024	0.00017143	0.218128	277.544
311.0000	1.17615	0.000165402	0.220642	277.782
310.5000	1.21959	0.000147011	0.22287	278.034
310.0000	1.29383	0.000153604	0.225258	278.28
309.5000	1.25087	0.000151655	0.228026	278.557
309.0000	1.37585	0.000139404	0.231019	278.862
308.5000	1.35574	0.00012488	0.233947	279.189
308.0000	1.51035	0.000117403	0.236662	279.492
307.5000	1.36391	0.000113688	0.240076	279.854
307.0000	1.54354	0.000128942	0.243509	280.197
306.5000	1.70284	0.000116179	0.247449	280.588
306.0000	1.93231	0.000109801	0.251458	280.971
305.5000	1.79308	9.40645E-005	0.255703	281.405
305.0000	1.78451	7.56856E-005	0.260095	281.841
304.5000	1.76748	7.78487E-005	0.265373	282.345
304.0000	1.83603	7.64767E-005	0.271062	282.88
303.5000	1.83888	6.88906E-005	0.276884	283.428
303.0000	2.0517	5.5345E-005	0.283225	284.047
302.5000	2.03377	3.45108E-005	0.289775	284.692
302.0000	2.07289	2.00712E-005	0.29682	285.365
301.5000	2.00765	3.96445E-006	0.304217	286.068
301.0000	2.20902	-1.2553E-005	0.311625	286.794
300.5000	2.23183	-1.19808E-005	0.318461	287.468
300.0000	2.38937	-2.9331E-005	0.326948	288.272
299.5000	2.54849	-5.60646E-005	0.334993	289.047
299.0000	2.55406	-6.92038E-005	0.34298	289.832
298.5000	2.51655	-8.88404E-005	0.351243	290.657
298.0000	2.53333	-9.87995E-005	0.359152	291.438
297.5000	2.71377	-0.000105805	0.367358	292.244
297.0000	2.849	-0.00011271	0.375061	292.96
296.5000	2.7589	-0.000114219	0.382267	293.649
296.0000	2.90713	-0.00013628	0.389345	294.332
295.5000	2.73518	-0.000147706	0.396426	294.99
295.0000	2.73644	-0.000129385	0.402997	295.583
294.5000	2.73808	-0.00013101	0.409386	296.172
294.0000	2.7167	-0.000109273	0.415546	296.782
293.5000	2.71814	-9.99104E-005	0.420477	297.289
293.0000	2.82669	-6.58117E-005	0.425633	297.812
292.5000	2.80876	-6.10536E-005	0.43039	298.318
292.0000	2.74453	-2.79188E-005	0.43449	298.774
291.5000	2.71076	-9.83942E-006	0.438622	299.22
291.0000	2.55816	1.91001E-005	0.442533	299.643
290.5000	2.53554	3.35209E-005	0.446599	300.076
290.0000	2.47734	5.76428E-005	0.450575	300.48
289.5000	2.31587	7.4768E-005	0.45392	300.853
289.0000	2.0147	9.23974E-005	0.45704	301.211
288.5000	1.97299	9.99522E-005	0.460371	301.602
288.0000	1.96653	0.000135216	0.463665	301.993
287.5000	1.96342	0.000171918	0.467104	302.41
287.0000	2.02299	0.000195123	0.470357	302.849
286.5000	1.94725	0.000220651	0.473278	303.277
286.0000	2.02612	0.00024624	0.476186	303.668
285.5000	2.15874	0.000275374	0.47953	304.051
285.0000	2.18035	0.000286765	0.482998	304.452
284.5000	2.06698	0.000292144	0.486223	304.83
284.0000	2.19778	0.000316754	0.48971	305.234
283.5000	2.05734	0.000335075	0.493594	305.664
283.0000	1.86607	0.000349534	0.497205	306.072
282.5000	1.84778	0.000380744	0.501236	306.52
282.0000	1.85399	0.000407299	0.505062	306.981
281.5000	2.00361	0.000421508	0.508815	307.437
281.0000	1.93778	0.00044546	0.513067	307.924
280.5000	2.05837	0.000479078	0.517635	308.466
280.0000	2.15101	0.000532034	0.522462	309.031
279.5000	2.19515	0.000547594	0.527426	309.621
279.0000	2.09571	0.00057065	0.532411	310.222
278.5000	1.97319	0.000583207	0.538183	310.897
278.0000	1.92287	0.000589939	0.545082	311.646
277.5000	1.83274	0.000621157	0.551692	312.366
277.0000	1.52984	0.0006434	0.559035	313.19
276.5000	1.60853	0.000699889	0.566691	314.062
276.0000	1.62273	0.000722669	0.574197	314.906
275.5000	1.65645	0.000748452	0.58317	315.882
275.0000	1.83898	0.000767848	0.592722	316.926
274.5000	1.99134	0.000787368	0.602633	318.031
274.0000	1.89138	0.000795093	0.613635	319.282
273.5000	1.65923	0.000820539	0.624561	320.489
273.0000	1.65938	0.000868275	0.636702	321.825
272.5000	1.85411	0.000922043	0.649581	323.252
272.0000	1.71183	0.000921819	0.66312	324.77
271.5000	1.59164	0.000949228	0.678267	326.469
271.0000	1.45177	0.000979287	0.693771	328.176
270.5000	1.71933	0.00101818	0.710482	330.002
270.0000	2.13165	0.00105996	0.727575	331.911
269.5000	2.37369	0.00108907	0.745573	333.961
269.0000	2.66995	0.00113347	0.763687	336.017
268.5000	2.88463	0.00115853	0.783937	338.308
268.0000	2.74984	0.00115587	0.805377	340.732
267.5000	2.79571	0.00120371	0.828003	343.307
267.0000	2.9217	0.00122889	0.85248	346.142
266.5000	2.98295	0.00125921	0.87798	349.133
266.0000	3.05871	0.0013015	0.902215	351.941
265.5000	3.1015	0.00131941	0.928702	354.998
265.0000	2.93035	0.00131852	0.956809	358.311
264.5000	2.89431	0.00131377	0.983814	361.544
264.0000	2.82352	0.00134416	1.01093	364.817
263.5000	2.90416	0.00136801	1.03968	368.284
263.0000	3.03303	0.00138005	1.0655	371.428
262.5000	3.11382	0.00139254	1.09348	374.907
262.0000	3.15687	0.00136075	1.11957	378.226
261.5000	3.02574	0.00139297	1.14564	381.538
261.0000	2.92918	0.00141179	1.17042	384.662
260.5000	2.60969	0.00136837	1.19616	387.953
260.0000	2.80285	0.00139454	1.22133	391.22
259.5000	3.0383	0.00140772	1.24603	394.471
259.0000	2.92661	0.00140471	1.27033	397.727
258.5000	2.23521	0.00138649	1.29479	400.989
258.0000	2.61736	0.00136855	1.31911	404.255
257.5000	3.23051	0.00134364	1.34199	407.353
257.0000	3.20605	0.00135355	1.36615	410.649
256.5000	2.89058	0.00131974	1.38912	413.797
256.0000	3.12416	0.00130551	1.4136	417.152
255.5000	2.93777	0.00135382	1.4386	420.579
255.0000	3.50509	0.00138245	1.46366	424.049
254.5000	3.25668	0.00138041	1.48759	427.388
254.0000	2.56997	0.00134748	1.51161	430.752
253.5000	2.09329	0.00133366	1.53852	434.48
253.0000	1.85719	0.00130512	1.56257	437.865
252.5000	1.25999	0.00126455	1.59691	442.801
252.0000	0.395989	0.00120519	1.62485	446.835
251.5000	-0.67801	0.00118227	1.64859	450.272
251.0000	-0.541807	0.00117086	1.67194	453.628
250.5000	-1.07864	0.00111785	1.69432	456.9
250.0000	-0.984884	0.0010962	1.71463	459.916
249.5000	-1.20352	0.00106252	1.73406	462.832
249.0000	-1.85425	0.00100399	1.7537	465.796
248.5000	-2.07242	0.000940875	1.77166	468.498
248.0000	-3.42113	0.000918126	1.78982	471.261
247.5000	-3.3238	0.000780874	1.80641	473.827
247.0000	-3.7684	0.000717955	1.82315	476.451
246.5000	-4.57204	0.000671538	1.83974	479.041
246.0000	-5.00246	0.000584691	1.85634	481.617
245.5000	-5.5576	0.000474926	1.87322	484.319
245.0000	-6.38084	0.000385669	1.89014	487.036
244.5000	-6.66649	0.000258743	1.90741	489.808
244.0000	-7.86185	0.000205742	1.92496	492.661
243.5000	-7.02932	0.000121362	1.94228	495.506
243.0000	-8.3673	-5.51676E-005	1.96005	498.474
242.5000	-8.77587	-0.000110251	1.98071	501.948
242.0000	-7.55106	-0.000145823	1.99967	505.147
241.5000	-9.21063	-0.00024086	2.02215	508.948
241.0000	-8.79452	-0.000293878	2.04394	512.644
240.5000	-8.5296	-0.000305712	2.06967	517.093
240.0000	-8.28859	-0.000409381	2.09492	521.465
239.5000	-7.27831	-0.000410864	2.12649	526.954
239.0000	-7.19176	-0.000419568	2.15617	532.107
238.5000	-6.4766	-0.000452652	2.18969	537.97
238.0000	-5.80158	-0.000565489	2.22739	544.664
237.5000	-6.53099	-0.000644427	2.26384	551.206
237.0000	-6.33234	-0.000731226	2.30502	558.649
236.5000	-4.39533	-0.000827283	2.34875	566.625
236.0000	-3.35141	-0.000874213	2.39264	574.697
235.5000	-3.44926	-0.00082001	2.44588	584.645
235.0000	-1.25398	-0.000802861	2.48372	591.802
234.5000	0.707203	-0.000868757	2.52576	599.809
234.0000	3.52183	-0.000946317	2.57185	608.669
233.5000	3.56882	-0.00100785	2.62528	619.033
233.0000	4.32319	-0.00114224	2.68337	630.46
232.5000	4.8012	-0.00109974	2.7403	641.872
232.0000	1.25935	-0.00117936	2.80782	655.671
231.5000	3.59549	-0.00106291	2.86391	667.374
231.0000	2.37174	-0.00105721	2.92705	680.776
230.5000	2.94506	-0.0011085	2.98996	694.455
230.0000	4.02338	-0.000829125	3.04902	707.632
229.5000	4.34825	-0.000821654	3.11014	721.54
229.0000	3.89592	-0.000938742	3.16945	735.368
228.5000	4.02787	-0.000743434	3.22676	749.009
228.0000	2.53731	-0.000644955	3.2786	761.651
227.5000	1.49938	-0.000605477	3.33007	774.63
227.0000	2.54709	-0.000662392	3.37745	786.957
226.5000	1.7609	-0.000733002	3.42389	799.379
226.0000	4.12408	-0.000596815	3.46212	810.004
225.5000	-0.398463	-0.000745949	3.49836	820.49
225.0000	1.411	-0.000668024	3.52991	830.182
224.5000	0.64601	-0.000741807	3.55694	839.022
224.0000	1.73099	-0.000913114	3.57969	846.955
223.5000	4.06203	-0.000544806	3.59839	853.96
223.0000	-0.727721	-0.000487484	3.61303	860.041
222.5000	2.96232	-0.000399632	3.62515	866.229
222.0000	-1.78084	-0.000665941	3.63146	870.824
221.5000	-5.07072	-0.000753187	3.63383	874.686
221.0000	-4.82068	-0.000838007	3.63294	877.322
220.5000	-5.33155	-0.000870591	3.62965	879.428
220.0000	-4.48359	-0.00118386	3.62393	881.132

##### Extended Information
[Comments]
Sample name	JS187+JS190_5E-5_H2O_40-60
Comment
User
Division
Company	Labo systeme complexes hors equilibre

[Detailed Information]
Creation date	1/23/2024 12:25 PM

Data array type	Linear data array * 4
Horizontal axis	Wavelength [nm]
Vertical axis(1)	CD [mdeg]
Vertical axis(2)	LD [dOD]
Vertical axis(3)	Abs
Vertical axis(4)	HT [V]
Start	700 nm
End	220 nm
Data interval	0.5 nm
Data points	961     

[Measurement Information]
Instrument name	CD Jasco
Model name	J-1500
Serial No.	A005261638

Detector	PM-539
Detector S/N	A0052PM539
  Lock-in amp.	X mode
  HT volt	Auto

Detector	EXPML-535
Detector S/N	A0001
  Lock-in amp.	X mode
  HT volt	Auto

Measurement date	1/23/2024 12:25 PM

Overload detect	1
Photometric mode	CD, LD, Abs, HT
Measure range	700 - 220 nm
Data pitch	0.5 nm
CD scale	200 mdeg/1.0 dOD
FL scale	200 mdeg/1.0 dOD
D.I.T.	1 sec
Bandwidth	1.00 nm
Start mode	Immediately
Scanning speed	500 nm/min
Baseline correction	Baseline
Shutter control	Auto


