TITLE	JS187+JS190_5E-5_H2O_54-46
DATA TYPE	
ORIGIN	JASCO
OWNER	
DATE	24/01/23
TIME	10:45:25
SPECTROMETER/DATA SYSTEM	
LOCALE	1033
RESOLUTION	
DELTAX	-0.5
XUNITS	NANOMETERS
YUNITS	CD [mdeg]
Y2UNITS	LD [dOD]
Y3UNITS	ABSORBANCE
Y4UNITS	HT [V]
FIRSTX	  700.0000
LASTX	  220.0000
NPOINTS	     961
FIRSTY	     1.48813
MAXY	     1.93113
MINY	   -13.55555
XYDATA
700.0000	1.48813	-1.54752E-005	-0.0598257	298.666
699.5000	1.27123	-2.65262E-005	-0.060947	298.359
699.0000	1.12139	-2.52606E-005	-0.0621284	298.002
698.5000	1.11222	-1.52439E-005	-0.062903	297.599
698.0000	1.25701	-3.21749E-005	-0.0641505	297.153
697.5000	1.10142	-2.24105E-005	-0.0658468	296.69
697.0000	1.0586	1.19987E-005	-0.067716	296.194
696.5000	1.14521	1.12435E-005	-0.068868	295.683
696.0000	1.08176	-2.31841E-006	-0.0692098	295.132
695.5000	1.0943	-1.02886E-005	-0.0693341	294.603
695.0000	1.14702	-3.38075E-005	-0.0688545	294.132
694.5000	0.755283	-4.3049E-005	-0.0683681	293.682
694.0000	0.656263	-3.23844E-005	-0.0666276	293.273
693.5000	0.676331	-2.09504E-005	-0.0643956	292.914
693.0000	0.428502	-2.38173E-005	-0.0615877	292.607
692.5000	0.356318	-2.33103E-005	-0.0587745	292.324
692.0000	0.296555	-2.19153E-005	-0.0559278	292.083
691.5000	0.391498	-2.32687E-005	-0.0529554	291.863
691.0000	0.457645	-2.13323E-005	-0.0502302	291.639
690.5000	0.611381	-2.84425E-007	-0.0482233	291.452
690.0000	0.497143	2.76234E-006	-0.0465543	291.28
689.5000	0.521432	-5.48912E-006	-0.0444965	291.167
689.0000	0.368265	-1.37054E-005	-0.0415885	291.116
688.5000	0.44832	-2.02566E-005	-0.038366	291.172
688.0000	0.342102	-1.25331E-005	-0.0344711	291.318
687.5000	0.358233	-8.49265E-006	-0.0302276	291.543
687.0000	0.307928	-3.39893E-006	-0.0267429	291.776
686.5000	0.0799734	-1.58742E-005	-0.0239621	292.033
686.0000	-0.0288996	-4.42303E-005	-0.0227944	292.27
685.5000	0.206008	-4.57812E-005	-0.0226669	292.514
685.0000	-0.0244515	-6.14739E-005	-0.0231187	292.738
684.5000	0.0190759	-6.11414E-005	-0.0241188	292.955
684.0000	0.281455	-4.64801E-005	-0.0255413	293.168
683.5000	0.188579	-4.10563E-005	-0.0265393	293.384
683.0000	0.145248	-1.61301E-005	-0.0273415	293.631
682.5000	0.104772	-3.39349E-005	-0.0275215	293.892
682.0000	0.47205	-4.32332E-005	-0.0277753	294.183
681.5000	0.367617	-5.04041E-005	-0.0275983	294.467
681.0000	0.465173	-4.32772E-005	-0.0276775	294.74
680.5000	0.646357	-4.50469E-005	-0.0282405	294.944
680.0000	0.704083	-5.68927E-005	-0.030198	295.086
679.5000	0.741239	-6.19976E-005	-0.0328967	295.153
679.0000	0.689289	-4.073E-005	-0.0365138	295.179
678.5000	0.81122	-1.90437E-005	-0.0389945	295.179
678.0000	0.944079	3.2998E-006	-0.0411808	295.167
677.5000	1.12177	2.10201E-005	-0.0424225	295.153
677.0000	0.95874	2.36978E-005	-0.0429467	295.134
676.5000	1.08277	1.77299E-005	-0.0425435	295.133
676.0000	0.91656	1.92528E-005	-0.0422095	295.122
675.5000	0.974254	1.62544E-005	-0.0418477	295.113
675.0000	1.00682	-1.15735E-005	-0.0412529	295.111
674.5000	0.968117	-1.32979E-005	-0.0404214	295.102
674.0000	0.693397	1.56409E-005	-0.0393481	295.118
673.5000	0.679543	1.42189E-005	-0.0381394	295.146
673.0000	0.4998	2.79184E-005	-0.0378476	295.182
672.5000	0.363813	1.35177E-005	-0.0375722	295.227
672.0000	0.385961	3.43611E-005	-0.0369545	295.281
671.5000	0.459317	3.72323E-005	-0.0359523	295.329
671.0000	0.225015	2.36862E-005	-0.034852	295.388
670.5000	0.191407	2.19796E-005	-0.0335261	295.452
670.0000	0.16679	3.98731E-005	-0.0323997	295.52
669.5000	0.403076	3.14703E-005	-0.0317422	295.596
669.0000	0.282017	2.98506E-005	-0.031098	295.669
668.5000	0.200672	1.1093E-005	-0.030393	295.752
668.0000	0.166858	-3.71891E-006	-0.030019	295.836
667.5000	0.466903	-8.07676E-006	-0.0295614	295.944
667.0000	0.331287	1.07541E-005	-0.0293553	296.055
666.5000	0.174996	1.12626E-006	-0.0289816	296.182
666.0000	0.308625	1.83539E-006	-0.0292401	296.323
665.5000	0.311271	-2.19235E-005	-0.0291227	296.461
665.0000	0.447345	-4.18787E-005	-0.0283275	296.587
664.5000	0.602311	-3.2168E-005	-0.0273213	296.704
664.0000	0.505506	-2.59098E-005	-0.0271429	296.808
663.5000	0.44204	-3.76728E-005	-0.0279382	296.912
663.0000	0.656834	-4.6388E-005	-0.0281119	296.996
662.5000	0.760724	-2.74505E-005	-0.028488	297.064
662.0000	0.687712	-5.48537E-005	-0.0288421	297.131
661.5000	0.422862	-6.21121E-005	-0.0286737	297.185
661.0000	0.407512	-7.14601E-005	-0.0289583	297.222
660.5000	0.440384	-4.81754E-005	-0.0293458	297.258
660.0000	0.619831	-3.43532E-005	-0.0294337	297.288
659.5000	0.554891	-1.55641E-005	-0.0300807	297.296
659.0000	0.689835	-2.01998E-005	-0.0305124	297.289
658.5000	0.569575	-2.89913E-005	-0.0308547	297.257
658.0000	0.505711	-2.86359E-005	-0.030922	297.201
657.5000	0.729084	-2.82635E-005	-0.0316968	297.111
657.0000	0.616666	-1.4283E-005	-0.0314951	297.012
656.5000	0.54902	-2.62471E-005	-0.0325046	296.882
656.0000	0.731772	-2.81921E-005	-0.0332118	296.756
655.5000	0.902058	-2.90308E-005	-0.0326458	296.6
655.0000	0.802489	-2.1628E-005	-0.0325169	296.454
654.5000	0.941978	-3.00474E-005	-0.0328492	296.314
654.0000	0.76523	-3.55293E-005	-0.0323019	296.179
653.5000	0.788092	-2.37356E-005	-0.0309445	296.063
653.0000	0.851646	-1.70109E-005	-0.0292087	295.963
652.5000	0.943296	8.42889E-008	-0.0275111	295.885
652.0000	1.01611	6.45412E-006	-0.025622	295.834
651.5000	0.985479	5.1765E-006	-0.0231783	295.818
651.0000	0.889126	-1.54211E-005	-0.0202609	295.829
650.5000	0.84876	1.43126E-005	-0.0180773	295.868
650.0000	1.01042	2.6701E-005	-0.0155668	295.922
649.5000	0.89841	3.2332E-005	-0.0135408	296.005
649.0000	0.993218	4.75007E-005	-0.0112197	296.116
648.5000	1.06141	4.19576E-005	-0.00964977	296.264
648.0000	1.14538	5.711E-005	-0.00776931	296.433
647.5000	1.02785	7.54224E-005	-0.00613253	296.604
647.0000	0.712836	7.16447E-005	-0.00515413	296.785
646.5000	0.759525	6.69785E-005	-0.00436437	296.97
646.0000	0.809693	3.97117E-005	-0.0026642	297.158
645.5000	0.848672	6.10996E-005	-0.00198171	297.323
645.0000	0.893914	5.89957E-005	-0.00266058	297.455
644.5000	1.14404	7.08658E-005	-0.00288628	297.583
644.0000	0.935076	7.1561E-005	-0.00304295	297.681
643.5000	0.857262	5.29109E-005	-0.00366025	297.747
643.0000	0.984139	4.5396E-005	-0.00427971	297.784
642.5000	1.24842	5.43505E-005	-0.00483286	297.8
642.0000	1.25153	5.4175E-005	-0.00511516	297.804
641.5000	1.27573	6.54118E-005	-0.00555639	297.786
641.0000	1.25567	5.08446E-005	-0.00564398	297.755
640.5000	1.22189	4.65583E-005	-0.00527356	297.716
640.0000	1.04107	4.05674E-005	-0.0046355	297.669
639.5000	1.11651	3.09286E-005	-0.00373525	297.606
639.0000	1.35872	3.01239E-005	-0.00300812	297.541
638.5000	1.29508	2.5841E-005	-0.00180252	297.469
638.0000	1.41412	4.46434E-005	-0.00125253	297.388
637.5000	1.46149	4.33313E-005	-0.000906554	297.306
637.0000	1.52714	4.42434E-005	0.000409549	297.231
636.5000	1.41647	1.33247E-005	0.00139983	297.154
636.0000	1.73397	-7.41266E-006	0.001896	297.097
635.5000	1.87115	2.29818E-007	0.00237618	297.03
635.0000	1.77657	-8.42191E-007	0.00348047	296.986
634.5000	1.56381	-1.7699E-005	0.00435495	296.935
634.0000	1.36937	-1.26655E-005	0.00515092	296.887
633.5000	1.48975	-2.36127E-005	0.00556808	296.842
633.0000	1.29587	-2.10611E-005	0.00661553	296.81
632.5000	1.1527	-2.86037E-005	0.00681673	296.759
632.0000	1.28397	-2.69675E-005	0.00691637	296.699
631.5000	1.34052	-3.02242E-005	0.00738233	296.646
631.0000	1.46223	-9.02007E-006	0.00776514	296.59
630.5000	1.3503	-1.22778E-005	0.00831767	296.552
630.0000	1.32603	5.82495E-006	0.00888494	296.507
629.5000	1.30074	3.35992E-006	0.00946418	296.45
629.0000	1.3345	2.67952E-005	0.00986286	296.399
628.5000	1.21749	1.351E-005	0.00999892	296.342
628.0000	1.19065	3.13823E-005	0.0104613	296.29
627.5000	1.03884	4.87198E-005	0.0111457	296.225
627.0000	0.741111	3.6983E-005	0.011305	296.161
626.5000	0.675905	4.03087E-005	0.0111577	296.097
626.0000	0.695615	3.7091E-005	0.0111866	296.041
625.5000	0.67509	4.20752E-005	0.0118041	295.982
625.0000	0.5736	2.46425E-005	0.0126866	295.942
624.5000	0.66709	3.40899E-005	0.0136417	295.91
624.0000	0.89586	6.86587E-005	0.0145897	295.899
623.5000	0.704929	8.51381E-005	0.0156044	295.898
623.0000	0.522897	7.50789E-005	0.0166465	295.915
622.5000	0.500174	8.49447E-005	0.0176602	295.927
622.0000	0.425272	7.23804E-005	0.0183496	295.945
621.5000	0.471707	7.296E-005	0.0191575	295.98
621.0000	0.523108	7.23689E-005	0.0200609	296.029
620.5000	0.658405	6.85732E-005	0.0206791	296.087
620.0000	0.763692	8.24826E-005	0.0212445	296.163
619.5000	0.65194	8.53037E-005	0.0222055	296.266
619.0000	0.895866	8.42123E-005	0.0236373	296.387
618.5000	1.16291	8.70062E-005	0.0253457	296.51
618.0000	1.08963	8.99785E-005	0.0271467	296.644
617.5000	1.24492	0.000102326	0.0279199	296.782
617.0000	1.14181	0.000108333	0.0284144	296.927
616.5000	1.15182	9.80856E-005	0.0289307	297.068
616.0000	1.01998	7.87627E-005	0.0297261	297.194
615.5000	1.08339	5.75761E-005	0.0301729	297.324
615.0000	1.2487	5.59513E-005	0.0306362	297.464
614.5000	1.33782	5.67739E-005	0.0309122	297.603
614.0000	1.20204	3.1401E-005	0.0312312	297.743
613.5000	1.30654	3.13322E-005	0.031721	297.878
613.0000	1.3247	3.7511E-005	0.0320622	298.014
612.5000	1.2142	3.39936E-005	0.0325108	298.151
612.0000	1.38172	3.64196E-005	0.0329864	298.279
611.5000	1.48352	3.37024E-005	0.0336773	298.398
611.0000	1.26214	2.74287E-005	0.0338133	298.513
610.5000	1.27286	1.83857E-005	0.0340634	298.647
610.0000	1.24389	9.62844E-006	0.0339562	298.753
609.5000	1.28485	2.01158E-005	0.0344927	298.86
609.0000	1.1556	1.57518E-005	0.0349581	298.956
608.5000	1.31024	1.69692E-005	0.035827	299.055
608.0000	1.2255	3.37054E-005	0.0363285	299.15
607.5000	0.966261	2.89027E-005	0.0364415	299.248
607.0000	1.15051	3.23589E-005	0.0369599	299.348
606.5000	0.984892	3.10944E-005	0.0375196	299.44
606.0000	1.09321	6.45297E-005	0.0387572	299.53
605.5000	0.854425	7.64666E-005	0.0397085	299.621
605.0000	0.713475	7.90843E-005	0.0410812	299.719
604.5000	0.656204	8.89113E-005	0.0420061	299.796
604.0000	0.281723	8.54705E-005	0.0432348	299.875
603.5000	0.290948	9.04739E-005	0.0446788	299.957
603.0000	0.391706	8.98027E-005	0.0456341	300.033
602.5000	0.405953	9.34358E-005	0.047061	300.107
602.0000	0.877921	0.000118011	0.0486014	300.176
601.5000	0.796395	0.000114872	0.0500888	300.252
601.0000	0.852935	0.000107034	0.0515861	300.328
600.5000	1.03255	0.000144997	0.0536174	300.402
600.0000	1.05565	0.000143959	0.0553095	300.468
599.5000	1.30012	0.000165531	0.0577548	300.522
599.0000	1.20168	0.00018406	0.0596649	300.558
598.5000	1.1388	0.000173347	0.0620954	300.586
598.0000	1.18253	0.000177887	0.0641785	300.621
597.5000	1.42592	0.00017742	0.0660566	300.654
597.0000	1.50399	0.000162399	0.0682907	300.692
596.5000	1.46146	0.000146871	0.0706884	300.721
596.0000	1.61177	0.000165642	0.0732273	300.758
595.5000	1.45836	0.000149225	0.0755428	300.79
595.0000	1.19741	0.000146577	0.0781873	300.814
594.5000	1.23825	0.00016223	0.081005	300.854
594.0000	1.18341	0.000180371	0.0834518	300.912
593.5000	1.06292	0.000191462	0.0863254	300.955
593.0000	0.969284	0.000197558	0.0895788	301.002
592.5000	1.13971	0.000189184	0.0924269	301.077
592.0000	1.07385	0.000205352	0.095188	301.165
591.5000	0.830016	0.000186342	0.0977755	301.265
591.0000	0.87399	0.000207267	0.100952	301.377
590.5000	0.87085	0.000205313	0.104052	301.523
590.0000	0.984889	0.000219514	0.107383	301.681
589.5000	1.1746	0.000216419	0.110897	301.842
589.0000	1.20688	0.000231108	0.114599	302.025
588.5000	1.23035	0.000239558	0.118322	302.235
588.0000	1.35806	0.000244936	0.122478	302.472
587.5000	1.4088	0.000235793	0.126754	302.736
587.0000	1.47212	0.0002463	0.131105	303.044
586.5000	1.39421	0.00023865	0.135344	303.349
586.0000	1.16783	0.000225664	0.14021	303.665
585.5000	1.06045	0.000202043	0.14476	304.003
585.0000	1.21809	0.000204427	0.149467	304.372
584.5000	1.18363	0.000217536	0.154195	304.744
584.0000	0.923932	0.000211683	0.159721	305.169
583.5000	0.945694	0.00020924	0.165524	305.618
583.0000	1.20228	0.000207998	0.172044	306.116
582.5000	1.4571	0.000220094	0.178459	306.643
582.0000	1.26394	0.000218715	0.185016	307.18
581.5000	1.03892	0.000250804	0.19208	307.772
581.0000	0.807814	0.000253698	0.199751	308.399
580.5000	0.999142	0.000276413	0.207548	309.044
580.0000	0.965653	0.000300148	0.215303	309.705
579.5000	0.964643	0.000315813	0.223256	310.401
579.0000	0.972025	0.0003415	0.231629	311.129
578.5000	0.987443	0.000348524	0.24061	311.875
578.0000	0.964852	0.00038004	0.249731	312.667
577.5000	1.12413	0.000390239	0.259072	313.539
577.0000	1.0228	0.000419794	0.269306	314.414
576.5000	1.10547	0.000433565	0.280592	315.388
576.0000	1.1675	0.000434918	0.291638	316.348
575.5000	1.09151	0.000452482	0.303498	317.375
575.0000	1.08027	0.000474804	0.314401	318.367
574.5000	0.981566	0.000488649	0.32658	319.457
574.0000	0.95654	0.000493179	0.338945	320.539
573.5000	0.847638	0.000486801	0.351555	321.66
573.0000	1.09118	0.00048964	0.364688	322.883
572.5000	0.990151	0.000485613	0.377239	324.061
572.0000	0.875704	0.000478063	0.391522	325.423
571.5000	0.810537	0.000491806	0.40573	326.757
571.0000	1.006	0.000507665	0.421377	328.183
570.5000	0.95695	0.000531327	0.43713	329.679
570.0000	1.08581	0.000531656	0.452351	331.139
569.5000	0.980618	0.000565466	0.468977	332.684
569.0000	0.668626	0.000594222	0.485851	334.254
568.5000	0.591802	0.000595568	0.50152	335.775
568.0000	0.463563	0.000602583	0.517412	337.353
567.5000	0.145947	0.000612325	0.533594	338.959
567.0000	0.118977	0.000634374	0.549604	340.514
566.5000	-0.0769048	0.000577746	0.565435	342.037
566.0000	-0.228371	0.000587728	0.581139	343.551
565.5000	-0.0163668	0.000617162	0.596189	345.039
565.0000	-0.0106052	0.000621517	0.611212	346.494
564.5000	-0.138635	0.000655278	0.626078	347.929
564.0000	-0.136703	0.000659986	0.639985	349.238
563.5000	-0.443383	0.000668981	0.653026	350.495
563.0000	-0.336162	0.000667616	0.666116	351.79
562.5000	-0.727605	0.000667371	0.678125	352.952
562.0000	-0.845488	0.000666283	0.689703	354.065
561.5000	-1.13313	0.000651864	0.702102	355.216
561.0000	-1.36496	0.000647898	0.713457	356.301
560.5000	-0.770006	0.000644551	0.723862	357.298
560.0000	-1.28647	0.000617581	0.733815	358.219
559.5000	-0.92112	0.000607982	0.743073	359.018
559.0000	-0.651443	0.000626039	0.750778	359.676
558.5000	-0.806332	0.000643748	0.757159	360.23
558.0000	-0.568074	0.000662986	0.762495	360.682
557.5000	-0.510899	0.000671332	0.767531	361.066
557.0000	-0.460011	0.00065118	0.771876	361.359
556.5000	-0.551209	0.000658489	0.775032	361.574
556.0000	-0.715266	0.000644233	0.77688	361.703
555.5000	-0.503318	0.000618274	0.778416	361.76
555.0000	-0.296326	0.000617105	0.77925	361.719
554.5000	-0.559651	0.00058597	0.77964	361.586
554.0000	-0.0222179	0.000612544	0.778772	361.378
553.5000	-0.024277	0.000607363	0.777298	361.103
553.0000	-0.00113677	0.000594307	0.775415	360.793
552.5000	-0.211525	0.000585008	0.773587	360.435
552.0000	0.350422	0.00058673	0.770945	359.982
551.5000	-0.0234464	0.000598733	0.768145	359.526
551.0000	-0.0437604	0.0006203	0.764795	359.055
550.5000	-0.328127	0.000578842	0.761128	358.533
550.0000	-0.515801	0.000586925	0.757479	357.984
549.5000	-0.820355	0.000573121	0.754024	357.436
549.0000	-0.806327	0.000561099	0.749938	356.885
548.5000	-1.01324	0.000562958	0.746013	356.365
548.0000	-1.01394	0.000552976	0.743039	355.819
547.5000	-0.820699	0.000563557	0.740204	355.315
547.0000	-0.677575	0.000589347	0.737409	354.794
546.5000	-0.605181	0.000612487	0.734588	354.337
546.0000	-0.527797	0.000613974	0.731607	353.939
545.5000	-0.665689	0.000624774	0.729762	353.549
545.0000	-0.879963	0.000597928	0.728291	353.247
544.5000	-0.851245	0.000603516	0.726918	352.946
544.0000	-0.673777	0.000593585	0.725745	352.713
543.5000	-0.884655	0.000593693	0.725199	352.536
543.0000	-0.757232	0.000585251	0.725252	352.405
542.5000	-0.408317	0.000587463	0.725975	352.316
542.0000	-0.253305	0.000615257	0.726953	352.291
541.5000	0.0728114	0.00060751	0.728238	352.32
541.0000	-0.071831	0.000602404	0.729813	352.403
540.5000	-0.125885	0.000626936	0.732685	352.549
540.0000	0.210425	0.00059804	0.736005	352.727
539.5000	0.175251	0.000636411	0.739375	352.966
539.0000	0.164993	0.000644131	0.743081	353.278
538.5000	0.410776	0.000638783	0.747592	353.656
538.0000	0.620684	0.00064998	0.752567	354.04
537.5000	0.217902	0.000649302	0.758246	354.511
537.0000	0.737352	0.000656749	0.764255	355.043
536.5000	0.486155	0.000656884	0.77058	355.593
536.0000	0.820445	0.000662662	0.777822	356.225
535.5000	0.858189	0.000687208	0.785052	356.866
535.0000	0.781833	0.000705955	0.793207	357.589
534.5000	0.619126	0.000715329	0.801105	358.299
534.0000	0.963524	0.000713353	0.809455	359.062
533.5000	0.884595	0.000721662	0.8181	359.884
533.0000	0.969621	0.000719601	0.826402	360.68
532.5000	0.891227	0.000722765	0.834999	361.517
532.0000	0.67013	0.00071885	0.844273	362.416
531.5000	0.632899	0.000716944	0.853987	363.349
531.0000	0.713942	0.000708925	0.864841	364.343
530.5000	0.548263	0.000698039	0.874892	365.295
530.0000	0.429322	0.000733365	0.885281	366.305
529.5000	0.713914	0.000731205	0.895309	367.276
529.0000	0.493746	0.000772167	0.905038	368.186
528.5000	0.589617	0.000783575	0.914551	369.098
528.0000	0.766852	0.000804584	0.923728	369.978
527.5000	0.533063	0.000795522	0.933355	370.881
527.0000	0.676589	0.000777306	0.94375	371.857
526.5000	0.909128	0.000750586	0.953202	372.768
526.0000	0.965428	0.000745166	0.963285	373.717
525.5000	0.742888	0.000743314	0.973042	374.63
525.0000	0.525739	0.000789304	0.982504	375.516
524.5000	0.226777	0.000802857	0.991152	376.298
524.0000	0.428606	0.000805773	0.999203	377.02
523.5000	0.277451	0.000797051	1.00696	377.746
523.0000	0.264822	0.00080012	1.01434	378.431
522.5000	0.109302	0.00079413	1.02101	379.066
522.0000	0.248248	0.000781973	1.02803	379.71
521.5000	0.273009	0.000767355	1.03495	380.318
521.0000	0.319574	0.000766692	1.04128	380.881
520.5000	0.372927	0.000750968	1.0473	381.411
520.0000	0.48101	0.000748819	1.05253	381.863
519.5000	0.578687	0.00073355	1.05787	382.296
519.0000	0.704061	0.000735306	1.06266	382.697
518.5000	0.624795	0.000750915	1.06683	383.064
518.0000	0.271732	0.00072581	1.07132	383.427
517.5000	0.168098	0.000717439	1.07569	383.769
517.0000	0.555019	0.000687039	1.08	384.077
516.5000	0.528457	0.000697255	1.08434	384.383
516.0000	1.0126	0.000701168	1.08831	384.674
515.5000	0.61095	0.000671919	1.09169	384.948
515.0000	0.871778	0.000674792	1.09487	385.189
514.5000	1.06634	0.000709086	1.09787	385.424
514.0000	1.02478	0.000682386	1.10075	385.635
513.5000	1.09808	0.000687323	1.10364	385.837
513.0000	1.22798	0.000660593	1.10632	386.056
512.5000	0.777444	0.000671488	1.10946	386.3
512.0000	0.453855	0.000634003	1.11232	386.505
511.5000	0.340789	0.000632321	1.11488	386.717
511.0000	-0.460094	0.000606338	1.11747	386.914
510.5000	-0.150137	0.000588787	1.12025	387.103
510.0000	-0.196929	0.000615511	1.12305	387.299
509.5000	-0.327938	0.000622283	1.12564	387.488
509.0000	-0.305846	0.000646757	1.12802	387.668
508.5000	-0.226625	0.000634116	1.13014	387.805
508.0000	-0.124315	0.000660146	1.13268	387.955
507.5000	-0.4542	0.0006339	1.13522	388.094
507.0000	-0.501376	0.000614791	1.13797	388.253
506.5000	-0.714243	0.000604497	1.14061	388.402
506.0000	-1.17646	0.000589639	1.14276	388.543
505.5000	-1.01501	0.000601842	1.14494	388.686
505.0000	-1.03367	0.000581329	1.14709	388.815
504.5000	-1.1698	0.000552627	1.14929	388.936
504.0000	-0.873126	0.000545225	1.1512	389.029
503.5000	-0.702394	0.000549432	1.15296	389.112
503.0000	-0.433226	0.00058446	1.15465	389.167
502.5000	-0.173081	0.000619849	1.15595	389.199
502.0000	-0.21067	0.000606732	1.15717	389.23
501.5000	0.00641834	0.000592081	1.15819	389.216
501.0000	-0.28007	0.00057661	1.15924	389.191
500.5000	-0.767953	0.000564156	1.16021	389.129
500.0000	-0.530009	0.000541432	1.16096	389.023
499.5000	-0.70363	0.000526562	1.16075	388.832
499.0000	-0.586458	0.000546988	1.15996	388.495
498.5000	-0.411475	0.000578703	1.15871	388.015
498.0000	-0.585282	0.000563724	1.15712	387.398
497.5000	-0.54976	0.000528202	1.15581	386.634
497.0000	-1.2978	0.00051456	1.15522	385.85
496.5000	-1.47589	0.000533733	1.15579	385.122
496.0000	-1.49512	0.000520736	1.15761	384.599
495.5000	-1.82601	0.000507638	1.15969	384.252
495.0000	-1.58665	0.000501215	1.16026	383.968
494.5000	-1.78648	0.000475314	1.16007	383.713
494.0000	-1.728	0.000471178	1.15934	383.445
493.5000	-1.81149	0.000476033	1.15856	383.171
493.0000	-2.12591	0.000448175	1.15777	382.911
492.5000	-1.66075	0.000459296	1.15687	382.639
492.0000	-1.69087	0.000472624	1.15557	382.337
491.5000	-2.07235	0.000455151	1.15413	382.069
491.0000	-2.2007	0.000437289	1.15286	381.82
490.5000	-2.70668	0.00039533	1.15155	381.609
490.0000	-2.68505	0.000361469	1.15015	381.443
489.5000	-2.65426	0.00036478	1.14838	381.302
489.0000	-2.85502	0.000371531	1.14591	381.113
488.5000	-2.6575	0.000357158	1.14212	380.788
488.0000	-2.58428	0.000349624	1.13678	380.208
487.5000	-2.71522	0.000347641	1.13087	379.386
487.0000	-2.64654	0.00034262	1.12615	378.487
486.5000	-2.85991	0.000339609	1.12113	377.423
486.0000	-2.73775	0.000338296	1.11661	376.364
485.5000	-3.02188	0.0003037	1.11375	375.369
485.0000	-3.00613	0.000302411	1.11166	374.466
484.5000	-3.467	0.000277622	1.10905	373.7
484.0000	-3.57803	0.00026264	1.10552	372.978
483.5000	-3.68256	0.000262898	1.10178	372.326
483.0000	-3.49737	0.000254538	1.09719	371.669
482.5000	-3.15152	0.000249613	1.09253	371.1
482.0000	-2.97875	0.000295081	1.08744	370.546
481.5000	-3.37078	0.000290899	1.08244	369.999
481.0000	-3.34509	0.000267036	1.07759	369.477
480.5000	-3.17881	0.000259105	1.07253	368.982
480.0000	-3.42622	0.000254818	1.0669	368.47
479.5000	-3.68716	0.000269408	1.06056	367.887
479.0000	-3.7678	0.000245328	1.05177	367.066
478.5000	-4.0254	0.000243111	1.04251	366
478.0000	-3.90507	0.000228435	1.03541	364.799
477.5000	-4.17628	0.000214353	1.03234	363.869
477.0000	-4.28618	0.000228496	1.02905	363.111
476.5000	-4.74785	0.000191716	1.0208	362.093
476.0000	-4.61747	0.000214266	1.01092	360.834
475.5000	-4.36541	0.000227209	1.00078	359.336
475.0000	-4.77022	0.000204852	0.990966	357.654
474.5000	-4.91385	0.000210695	0.982233	355.904
474.0000	-5.23277	0.000183116	0.973859	354.011
473.5000	-5.35341	0.000166709	0.964759	351.861
473.0000	-5.35404	0.000171239	0.955792	349.566
472.5000	-5.32762	0.000201458	0.948846	347.259
472.0000	-5.25956	0.000235229	0.945198	345.39
471.5000	-5.24758	0.00023917	0.942374	343.892
471.0000	-5.35727	0.000246099	0.940023	342.985
470.5000	-5.41431	0.000253821	0.937682	342.392
470.0000	-5.61542	0.000241282	0.934135	342.068
469.5000	-5.8641	0.000240216	0.926281	341.604
469.0000	-5.59727	0.000261082	0.912878	340.6
468.5000	-5.69461	0.000261485	0.900453	339.281
468.0000	-5.76482	0.000264591	0.891472	337.98
467.5000	-5.92366	0.000257085	0.885116	336.922
467.0000	-5.76446	0.000249254	0.880343	336.131
466.5000	-5.69716	0.000249403	0.875955	335.553
466.0000	-5.59101	0.000266369	0.870647	335.156
465.5000	-5.23605	0.000289833	0.864874	334.973
465.0000	-5.43347	0.000291027	0.858417	335.039
464.5000	-5.34158	0.000276424	0.849453	335.16
464.0000	-5.40269	0.000252537	0.836924	334.992
463.5000	-5.49401	0.000249299	0.822695	334.436
463.0000	-5.50247	0.00023234	0.80938	333.596
462.5000	-5.55147	0.000233972	0.798361	332.662
462.0000	-5.61618	0.000239978	0.788952	331.72
461.5000	-5.39777	0.000249707	0.780577	330.91
461.0000	-5.53874	0.000223955	0.772498	330.246
460.5000	-5.45507	0.000226387	0.763865	329.687
460.0000	-5.05452	0.000253605	0.75536	329.23
459.5000	-4.91165	0.000249406	0.746023	328.783
459.0000	-4.9872	0.000263402	0.734975	328.212
458.5000	-5.11964	0.000257102	0.723439	327.548
458.0000	-5.05232	0.000261802	0.711011	326.685
457.5000	-4.98512	0.000260422	0.698438	325.595
457.0000	-4.98582	0.00024685	0.686907	324.375
456.5000	-4.80522	0.000252204	0.677589	323.25
456.0000	-4.93153	0.000255091	0.667292	322.148
455.5000	-4.99591	0.00025895	0.654189	320.795
455.0000	-4.76979	0.000273671	0.642541	319.402
454.5000	-4.8718	0.000276215	0.634127	318.194
454.0000	-4.52055	0.000293397	0.626235	317.218
453.5000	-4.26183	0.000336499	0.616492	316.372
453.0000	-4.25242	0.000332691	0.606039	315.53
452.5000	-4.10039	0.000344022	0.595811	314.666
452.0000	-4.17171	0.000354588	0.585708	313.753
451.5000	-4.18436	0.000350168	0.575094	312.796
451.0000	-4.09578	0.000365912	0.5651	311.891
450.5000	-3.91055	0.000360049	0.554826	310.945
450.0000	-3.72566	0.000370631	0.54584	310.076
449.5000	-3.64077	0.00037863	0.538176	309.37
449.0000	-3.62338	0.000378713	0.530746	308.814
448.5000	-3.60022	0.000399574	0.521049	308.191
448.0000	-3.3516	0.000401904	0.510946	307.467
447.5000	-3.19438	0.000399214	0.503496	306.866
447.0000	-3.16782	0.000404446	0.498192	306.537
446.5000	-3.19419	0.000419899	0.491391	306.289
446.0000	-3.03664	0.000427559	0.480342	305.767
445.5000	-2.97502	0.000421584	0.469469	304.988
445.0000	-3.03699	0.000414048	0.460251	304.09
444.5000	-3.06251	0.000418346	0.451519	303.161
444.0000	-3.05631	0.000422392	0.443137	302.241
443.5000	-3.0329	0.000427711	0.43486	301.262
443.0000	-3.1184	0.000433423	0.427946	300.402
442.5000	-3.24527	0.000434216	0.421343	299.58
442.0000	-3.26622	0.000424792	0.415272	298.883
441.5000	-3.15638	0.000430591	0.408241	298.129
441.0000	-3.20547	0.000432599	0.401746	297.444
440.5000	-3.40742	0.000430259	0.395458	296.782
440.0000	-3.42806	0.000426696	0.388823	296.093
439.5000	-3.27625	0.000430051	0.381899	295.385
439.0000	-3.26044	0.000449734	0.37449	294.638
438.5000	-3.24856	0.00045237	0.366578	293.868
438.0000	-3.26277	0.000451835	0.358595	293.112
437.5000	-3.23342	0.000440402	0.351175	292.4
437.0000	-3.10525	0.000445289	0.343358	291.671
436.5000	-2.97611	0.000440821	0.337139	291.058
436.0000	-2.80345	0.000448049	0.331351	290.502
435.5000	-2.81307	0.000443661	0.325066	289.966
435.0000	-2.71489	0.000450071	0.318399	289.432
434.5000	-2.62479	0.000455897	0.311724	288.901
434.0000	-2.53897	0.000450874	0.305063	288.339
433.5000	-2.49224	0.000464976	0.298871	287.79
433.0000	-2.32999	0.000466306	0.292801	287.202
432.5000	-2.13355	0.00047627	0.287006	286.634
432.0000	-1.80176	0.000488799	0.28082	286.037
431.5000	-1.99493	0.000479384	0.274743	285.44
431.0000	-1.91217	0.000476109	0.268854	284.846
430.5000	-1.83322	0.000484354	0.263135	284.258
430.0000	-1.73891	0.000472207	0.258021	283.712
429.5000	-1.77432	0.000468915	0.25257	283.141
429.0000	-1.84084	0.000464216	0.247145	282.567
428.5000	-1.57647	0.000468756	0.241691	281.999
428.0000	-1.61449	0.000463094	0.235865	281.424
427.5000	-1.59633	0.00047277	0.230915	280.908
427.0000	-1.58519	0.000469919	0.226102	280.394
426.5000	-1.51341	0.000456521	0.221236	279.867
426.0000	-1.61912	0.00045334	0.216176	279.305
425.5000	-1.52155	0.000454359	0.211452	278.734
425.0000	-1.7158	0.000439327	0.206582	278.141
424.5000	-1.57589	0.000436165	0.201743	277.52
424.0000	-1.47615	0.000419413	0.197512	276.936
423.5000	-1.51726	0.000407344	0.194051	276.424
423.0000	-1.5675	0.000403188	0.190358	275.957
422.5000	-1.64067	0.000397349	0.186484	275.532
422.0000	-1.61007	0.000395239	0.182524	275.129
421.5000	-1.47142	0.000400999	0.178516	274.731
421.0000	-1.22403	0.000395218	0.174817	274.356
420.5000	-1.0889	0.000398733	0.17105	273.98
420.0000	-0.987156	0.000395533	0.167435	273.601
419.5000	-0.985808	0.000404675	0.163753	273.2
419.0000	-0.900274	0.000397399	0.160141	272.815
418.5000	-0.604029	0.000382986	0.156733	272.484
418.0000	-0.745037	0.000388699	0.153645	272.159
417.5000	-0.671496	0.000384118	0.150542	271.852
417.0000	-0.614253	0.000387016	0.14779	271.562
416.5000	-0.487463	0.000382401	0.145386	271.339
416.0000	-0.513612	0.000391026	0.142655	271.149
415.5000	-0.620933	0.00039108	0.139453	270.933
415.0000	-0.542735	0.000388882	0.136073	270.666
414.5000	-0.373729	0.000390082	0.133234	270.373
414.0000	-0.340141	0.000393309	0.130838	270.078
413.5000	-0.273229	0.000412851	0.128614	269.78
413.0000	-0.532271	0.000404271	0.126499	269.505
412.5000	-0.648202	0.000405686	0.124518	269.265
412.0000	-0.652911	0.000409291	0.122791	269.057
411.5000	-0.544083	0.000403692	0.12063	268.834
411.0000	-0.542461	0.000401283	0.118687	268.634
410.5000	-0.463446	0.000397458	0.117062	268.454
410.0000	-0.566171	0.000405091	0.115512	268.281
409.5000	-0.425967	0.000407974	0.11421	268.142
409.0000	-0.488496	0.000407579	0.112775	268.009
408.5000	-0.586468	0.000396631	0.11107	267.88
408.0000	-0.672254	0.000390526	0.109189	267.75
407.5000	-0.586397	0.000395965	0.107231	267.607
407.0000	-0.461397	0.000390504	0.105485	267.456
406.5000	-0.39888	0.000380419	0.103963	267.31
406.0000	-0.440518	0.000379934	0.102479	267.163
405.5000	-0.297789	0.000374675	0.100937	267.017
405.0000	-0.32649	0.000363485	0.0992985	266.84
404.5000	-0.19093	0.000366459	0.0977757	266.654
404.0000	-0.266381	0.000362994	0.0965313	266.438
403.5000	-0.287184	0.000367722	0.0952549	266.196
403.0000	-0.360294	0.000368462	0.0944645	265.953
402.5000	-0.171264	0.000372544	0.0932121	265.686
402.0000	-0.182686	0.000381822	0.0927332	265.457
401.5000	-0.0941687	0.00036532	0.0923035	265.203
401.0000	0.0548877	0.00037351	0.0915152	264.958
400.5000	0.198424	0.000383284	0.090861	264.735
400.0000	0.0524065	0.000384185	0.0902279	264.546
399.5000	0.117104	0.000375588	0.0902102	264.376
399.0000	0.0904097	0.000385634	0.0902383	264.242
398.5000	-0.0209898	0.000392193	0.0899379	264.113
398.0000	0.0321161	0.000388663	0.0895522	264.002
397.5000	-0.106876	0.000384466	0.0892198	263.92
397.0000	-0.0467177	0.000384184	0.0890121	263.846
396.5000	0.0148416	0.000378973	0.088804	263.818
396.0000	-0.0326676	0.000377704	0.088631	263.811
395.5000	-0.0764207	0.000367392	0.0881726	263.836
395.0000	-0.0946469	0.000363634	0.087821	263.886
394.5000	-0.105482	0.0003569	0.0877875	263.977
394.0000	-0.226315	0.000369096	0.087797	264.093
393.5000	-0.253428	0.000365067	0.0874584	264.222
393.0000	-0.490831	0.000350458	0.0870299	264.369
392.5000	-0.472217	0.000358134	0.0868268	264.511
392.0000	-0.479112	0.000357221	0.0867241	264.627
391.5000	-0.363036	0.000365618	0.0868842	264.731
391.0000	-0.465593	0.00036855	0.0869228	264.827
390.5000	-0.446018	0.000363775	0.0866787	264.909
390.0000	-0.46841	0.000377728	0.0865664	264.993
389.5000	-0.436527	0.000380875	0.086791	265.068
389.0000	-0.382762	0.000378474	0.0870929	265.128
388.5000	-0.383163	0.000392825	0.0873167	265.197
388.0000	-0.30441	0.000398156	0.0874957	265.269
387.5000	-0.222375	0.000406943	0.0878865	265.328
387.0000	-0.315758	0.000403969	0.0888225	265.391
386.5000	-0.251377	0.000410003	0.089646	265.453
386.0000	-0.284762	0.000406991	0.0905112	265.504
385.5000	-0.34401	0.000385551	0.0912216	265.537
385.0000	-0.296767	0.000388164	0.0919816	265.568
384.5000	-0.282211	0.000391774	0.0927947	265.603
384.0000	-0.343778	0.000404356	0.0938697	265.648
383.5000	-0.249764	0.000408421	0.0947082	265.696
383.0000	-0.10526	0.000396145	0.0952942	265.734
382.5000	0.100015	0.000389034	0.0960122	265.776
382.0000	0.0207528	0.00039416	0.0972393	265.824
381.5000	0.0932818	0.000374825	0.0985489	265.87
381.0000	0.125001	0.000384319	0.0996572	265.925
380.5000	0.0782303	0.000373919	0.100639	265.986
380.0000	0.0159877	0.000371653	0.101796	266.041
379.5000	-0.0781209	0.000373987	0.103054	266.102
379.0000	-0.181629	0.0003684	0.103953	266.163
378.5000	-0.0967014	0.000367329	0.104557	266.225
378.0000	-0.154513	0.000369664	0.105118	266.279
377.5000	-0.0081388	0.000370779	0.105744	266.325
377.0000	0.153782	0.000385917	0.106249	266.361
376.5000	0.135484	0.000388867	0.106952	266.391
376.0000	0.0981636	0.000383933	0.107572	266.408
375.5000	0.140788	0.00036439	0.107858	266.412
375.0000	0.0459203	0.000368527	0.108346	266.425
374.5000	-0.211734	0.000370848	0.108701	266.42
374.0000	-0.277072	0.000375386	0.108995	266.406
373.5000	-0.240824	0.000369855	0.109317	266.402
373.0000	-0.260748	0.000356442	0.109398	266.397
372.5000	-0.313038	0.000355121	0.109582	266.394
372.0000	-0.141097	0.000365498	0.109832	266.39
371.5000	-0.137143	0.000365454	0.110117	266.398
371.0000	-0.190095	0.000348547	0.110439	266.395
370.5000	-0.0645729	0.000353281	0.110847	266.393
370.0000	-0.11772	0.000355483	0.11104	266.387
369.5000	-0.0872358	0.000349489	0.111287	266.392
369.0000	-0.132138	0.000357903	0.111669	266.41
368.5000	-0.288317	0.000347622	0.11239	266.452
368.0000	-0.207713	0.000337448	0.112934	266.502
367.5000	-0.204831	0.000349686	0.113483	266.548
367.0000	-0.025114	0.000341115	0.114383	266.61
366.5000	0.12304	0.000336694	0.115017	266.676
366.0000	0.057816	0.000339696	0.11571	266.758
365.5000	-0.00887092	0.000350029	0.116456	266.847
365.0000	0.152271	0.000356107	0.116902	266.921
364.5000	0.134511	0.000353622	0.117558	266.993
364.0000	0.222104	0.000350712	0.118074	267.07
363.5000	0.215935	0.000338482	0.118952	267.151
363.0000	0.35347	0.000332727	0.119754	267.23
362.5000	0.354631	0.000339828	0.120481	267.315
362.0000	0.582239	0.000334437	0.121237	267.405
361.5000	0.539883	0.000341519	0.122221	267.499
361.0000	0.526796	0.000335659	0.122948	267.573
360.5000	0.504176	0.000339514	0.123445	267.647
360.0000	0.727069	0.000344776	0.124021	267.719
359.5000	0.769394	0.00034029	0.124482	267.788
359.0000	0.750315	0.000329245	0.124723	267.857
358.5000	0.764032	0.00034613	0.12478	267.921
358.0000	0.737177	0.000337294	0.124859	267.984
357.5000	0.759586	0.000345594	0.124933	268.048
357.0000	0.776308	0.000327776	0.125234	268.109
356.5000	0.72211	0.00033754	0.125864	268.171
356.0000	0.834689	0.000332724	0.126027	268.224
355.5000	0.831503	0.00033143	0.126188	268.279
355.0000	0.878091	0.000332842	0.126262	268.336
354.5000	0.928658	0.000341377	0.12632	268.394
354.0000	1.03518	0.000343358	0.126473	268.45
353.5000	0.994268	0.00034958	0.1266	268.503
353.0000	1.06805	0.000356647	0.126741	268.565
352.5000	1.14177	0.000367986	0.126983	268.634
352.0000	1.34807	0.000360119	0.127165	268.696
351.5000	1.29971	0.000360195	0.127398	268.76
351.0000	1.25319	0.000360987	0.128015	268.828
350.5000	1.2627	0.000345735	0.128689	268.891
350.0000	1.13941	0.000350023	0.12954	268.965
349.5000	1.06198	0.000343915	0.130411	269.034
349.0000	1.00958	0.000342165	0.131361	269.103
348.5000	1.07182	0.000358381	0.132296	269.163
348.0000	1.12223	0.000354126	0.1328	269.207
347.5000	0.960991	0.000354298	0.133776	269.269
347.0000	0.97344	0.000355666	0.134968	269.345
346.5000	0.780656	0.000345561	0.135869	269.414
346.0000	0.857397	0.000338793	0.136631	269.477
345.5000	0.652944	0.000324373	0.137404	269.526
345.0000	0.542849	0.000310472	0.138335	269.586
344.5000	0.519318	0.000306651	0.139223	269.641
344.0000	0.473776	0.000288027	0.14033	269.7
343.5000	0.428264	0.000265262	0.141082	269.75
343.0000	0.362427	0.000266206	0.141797	269.807
342.5000	0.421207	0.000273508	0.142419	269.868
342.0000	0.411971	0.000282737	0.143037	269.932
341.5000	0.45754	0.000276012	0.143806	270
341.0000	0.665588	0.000287929	0.144612	270.053
340.5000	0.730599	0.000282228	0.145252	270.117
340.0000	0.645454	0.000279882	0.146026	270.194
339.5000	0.685949	0.000267298	0.146619	270.279
339.0000	0.831898	0.000260435	0.147376	270.353
338.5000	0.897945	0.000277371	0.148176	270.425
338.0000	0.928062	0.000292501	0.149086	270.512
337.5000	0.885088	0.0002983	0.149888	270.597
337.0000	0.947937	0.000299337	0.150601	270.683
336.5000	0.949487	0.00030403	0.151538	270.769
336.0000	1.12895	0.000300418	0.152295	270.853
335.5000	1.27611	0.000321028	0.153123	270.941
335.0000	1.25131	0.00032489	0.154035	271.036
334.5000	1.42778	0.000325878	0.154935	271.139
334.0000	1.55601	0.000307231	0.155916	271.238
333.5000	1.46954	0.000291254	0.157307	271.343
333.0000	1.47897	0.000292761	0.158204	271.435
332.5000	1.31836	0.000272325	0.158821	271.528
332.0000	1.16345	0.0002871	0.159451	271.616
331.5000	1.20669	0.000290222	0.160563	271.726
331.0000	1.1875	0.000300438	0.161762	271.841
330.5000	1.18886	0.000296397	0.162626	271.947
330.0000	1.09481	0.000282317	0.163584	272.052
329.5000	1.11124	0.000274422	0.164544	272.158
329.0000	1.08919	0.00025625	0.165634	272.286
328.5000	1.03896	0.000258704	0.166645	272.394
328.0000	1.09846	0.000255484	0.167565	272.505
327.5000	0.804476	0.000241726	0.168625	272.61
327.0000	0.811782	0.000227372	0.169836	272.706
326.5000	0.862782	0.000232033	0.17128	272.82
326.0000	0.658123	0.00022093	0.172883	272.944
325.5000	0.711379	0.000227906	0.174295	273.073
325.0000	0.662209	0.000229139	0.175478	273.21
324.5000	0.875554	0.000212379	0.176954	273.361
324.0000	0.91958	0.000205195	0.178675	273.516
323.5000	1.02795	0.000191243	0.180418	273.664
323.0000	0.960273	0.000183325	0.181823	273.806
322.5000	0.850201	0.000176211	0.183321	273.96
322.0000	0.820034	0.000181651	0.184741	274.119
321.5000	1.00965	0.000175045	0.186495	274.286
321.0000	0.940542	0.000163278	0.188277	274.453
320.5000	1.1545	0.000169128	0.189991	274.609
320.0000	1.01355	0.000168769	0.191536	274.763
319.5000	1.01402	0.00015949	0.193182	274.926
319.0000	0.954506	0.000179039	0.194843	275.114
318.5000	0.900207	0.000161994	0.196485	275.31
318.0000	0.852742	0.000150692	0.197803	275.472
317.5000	0.88851	0.000151519	0.199105	275.613
317.0000	0.945591	0.000150068	0.200744	275.759
316.5000	0.955964	0.000163347	0.202514	275.902
316.0000	0.887228	0.000158745	0.204516	276.07
315.5000	0.857943	0.000161583	0.206217	276.242
315.0000	0.832471	0.000157369	0.208084	276.441
314.5000	0.78534	0.000149669	0.209843	276.63
314.0000	0.903185	0.000147181	0.211779	276.826
313.5000	0.898565	0.000149929	0.213799	277.026
313.0000	1.01895	0.000156081	0.215789	277.234
312.5000	0.931301	0.000148186	0.217686	277.444
312.0000	0.851896	0.00013175	0.219908	277.666
311.5000	0.848407	0.000133312	0.222024	277.89
311.0000	0.981651	0.000129726	0.224505	278.125
310.5000	0.973775	0.000113053	0.226929	278.395
310.0000	0.906302	0.000127593	0.229366	278.645
309.5000	0.895812	0.000114364	0.23214	278.923
309.0000	0.940232	0.000108628	0.23537	279.249
308.5000	0.920079	9.44138E-005	0.238412	279.587
308.0000	0.861719	9.24007E-005	0.241327	279.908
307.5000	0.825733	8.15461E-005	0.244714	280.268
307.0000	0.835398	7.58106E-005	0.248208	280.617
306.5000	0.934029	7.09445E-005	0.252142	281.007
306.0000	1.05778	6.39209E-005	0.256272	281.403
305.5000	0.912238	5.93781E-005	0.26056	281.841
305.0000	1.06994	6.07544E-005	0.265034	282.285
304.5000	0.874702	5.48041E-005	0.270437	282.801
304.0000	1.01384	6.96026E-005	0.276388	283.359
303.5000	1.03204	7.38429E-005	0.282368	283.923
303.0000	1.05224	6.93019E-005	0.288829	284.553
302.5000	1.1255	6.66248E-005	0.295647	285.224
302.0000	1.08531	6.47116E-005	0.302995	285.925
301.5000	1.2337	6.02773E-005	0.310765	286.664
301.0000	1.47787	6.86502E-005	0.318541	287.425
300.5000	1.46141	6.91593E-005	0.325629	288.122
300.0000	1.49477	6.68743E-005	0.334477	288.961
299.5000	1.65469	5.8549E-005	0.342895	289.772
299.0000	1.65286	6.70383E-005	0.351275	290.595
298.5000	1.71657	6.00237E-005	0.359908	291.456
298.0000	1.82971	5.5531E-005	0.368235	292.277
297.5000	1.75968	5.12968E-005	0.377028	293.14
297.0000	1.74818	4.37408E-005	0.385067	293.889
296.5000	1.77067	3.78619E-005	0.39278	294.627
296.0000	1.88531	3.22277E-005	0.400084	295.333
295.5000	1.83418	1.78071E-005	0.407557	296.029
295.0000	1.93113	2.23341E-005	0.41432	296.642
294.5000	1.83983	2.8713E-005	0.421025	297.262
294.0000	1.82352	5.1398E-005	0.42739	297.894
293.5000	1.91366	5.59143E-005	0.432451	298.415
293.0000	1.8386	6.22223E-005	0.437824	298.959
292.5000	1.79839	7.55781E-005	0.442884	299.496
292.0000	1.75693	8.6102E-005	0.44736	299.989
291.5000	1.60626	6.91983E-005	0.451706	300.457
291.0000	1.58379	7.95759E-005	0.455767	300.895
290.5000	1.40571	8.50263E-005	0.459984	301.344
290.0000	1.42114	0.000117864	0.464	301.754
289.5000	1.28725	0.000112415	0.467333	302.127
289.0000	1.32975	0.000130714	0.470686	302.508
288.5000	1.18767	0.000135836	0.474189	302.917
288.0000	1.00876	0.000144234	0.477559	303.316
287.5000	0.97666	0.000157739	0.481062	303.74
287.0000	0.792132	0.000166101	0.484401	304.19
286.5000	0.745437	0.000183652	0.487491	304.636
286.0000	0.660766	0.000191359	0.490676	305.054
285.5000	0.521061	0.000182	0.494307	305.466
285.0000	0.507415	0.000206513	0.498113	305.901
284.5000	0.273834	0.000206026	0.501566	306.303
284.0000	0.137653	0.000210396	0.505369	306.739
283.5000	-0.00489391	0.000219472	0.509395	307.184
283.0000	-0.0727875	0.000231915	0.513308	307.624
282.5000	-0.134034	0.000247859	0.517703	308.108
282.0000	-0.0405917	0.000258729	0.521953	308.612
281.5000	-0.0567749	0.000253595	0.526176	309.116
281.0000	-0.0597321	0.000263138	0.530789	309.64
280.5000	-0.0336467	0.000273193	0.535486	310.197
280.0000	-0.111695	0.000298129	0.54071	310.803
279.5000	-0.302	0.000314158	0.546097	311.438
279.0000	-0.360295	0.00032539	0.551551	312.087
278.5000	-0.531752	0.000337718	0.557783	312.811
278.0000	-0.598902	0.000314686	0.565165	313.611
277.5000	-0.625634	0.00033177	0.572249	314.382
277.0000	-0.709771	0.000350158	0.579887	315.239
276.5000	-0.756095	0.000357154	0.587874	316.148
276.0000	-0.991922	0.00036963	0.59549	317.007
275.5000	-0.963398	0.000374407	0.60476	318.019
275.0000	-0.858241	0.00039853	0.614678	319.105
274.5000	-0.815344	0.000416497	0.625043	320.261
274.0000	-0.877294	0.000422379	0.636499	321.566
273.5000	-1.10642	0.00042497	0.647726	322.81
273.0000	-1.40144	0.000457252	0.660254	324.194
272.5000	-1.81283	0.000478657	0.673588	325.675
272.0000	-1.82649	0.00049808	0.687764	327.267
271.5000	-1.67311	0.000507735	0.703393	329.026
271.0000	-1.69294	0.000518055	0.719584	330.815
270.5000	-1.33653	0.000527283	0.736653	332.69
270.0000	-1.19991	0.000540029	0.754387	334.679
269.5000	-1.44056	0.000548426	0.772826	336.789
269.0000	-1.50178	0.000555562	0.791519	338.92
268.5000	-1.90998	0.000539111	0.812436	341.298
268.0000	-1.88208	0.000525266	0.834646	343.821
267.5000	-1.85728	0.000559686	0.857865	346.478
267.0000	-1.97033	0.000544581	0.883053	349.412
266.5000	-2.06399	0.000557548	0.909365	352.514
266.0000	-2.28572	0.000554338	0.93444	355.437
265.5000	-2.4445	0.00056234	0.961839	358.62
265.0000	-2.58746	0.000553142	0.990887	362.065
264.5000	-2.96571	0.000530876	1.01861	365.406
264.0000	-2.55697	0.000564524	1.04651	368.796
263.5000	-2.9551	0.000584128	1.07616	372.397
263.0000	-3.21497	0.000601359	1.10281	375.665
262.5000	-3.36152	0.000590026	1.13173	379.286
262.0000	-3.85605	0.000611385	1.15862	382.73
261.5000	-3.47597	0.000642998	1.18558	386.178
261.0000	-3.27743	0.000651581	1.21109	389.419
260.5000	-3.13943	0.000644553	1.23738	392.811
260.0000	-3.13325	0.000676547	1.26328	396.198
259.5000	-3.28994	0.000667471	1.28876	399.579
259.0000	-3.52198	0.000654786	1.31389	402.971
258.5000	-3.65217	0.0006925	1.339	406.348
258.0000	-3.67054	0.00065172	1.3639	409.723
257.5000	-4.00659	0.000626522	1.3874	412.931
257.0000	-4.42585	0.000641594	1.41222	416.347
256.5000	-3.96092	0.000619799	1.43596	419.628
256.0000	-3.86326	0.000579188	1.4613	423.13
255.5000	-3.8539	0.00060712	1.48696	426.682
255.0000	-3.8522	0.000566005	1.51259	430.269
254.5000	-3.47953	0.000556246	1.53709	433.722
254.0000	-3.41384	0.000556267	1.56187	437.226
253.5000	-4.34637	0.000517342	1.58968	441.12
253.0000	-5.35888	0.000454078	1.61441	444.638
252.5000	-5.16202	0.000487673	1.65007	449.814
252.0000	-6.24898	0.000474293	1.67889	454.019
251.5000	-6.77026	0.000494655	1.70332	457.595
251.0000	-7.00336	0.000458375	1.72747	461.106
250.5000	-7.73534	0.000392951	1.75062	464.528
250.0000	-7.39389	0.000407982	1.77165	467.686
249.5000	-7.39477	0.000395339	1.79172	470.731
249.0000	-7.33805	0.000349764	1.81194	473.818
248.5000	-7.74166	0.000362938	1.83048	476.642
248.0000	-8.20666	0.000383713	1.84932	479.539
247.5000	-7.89772	0.000377451	1.86644	482.218
247.0000	-7.93703	0.000396772	1.88382	484.972
246.5000	-8.97118	0.000335511	1.90102	487.688
246.0000	-9.76375	0.000241507	1.91812	490.375
245.5000	-10.3029	0.000168871	1.93536	493.169
245.0000	-10.445	0.000191275	1.9527	495.99
244.5000	-11.8148	0.000153832	1.97048	498.877
244.0000	-9.87986	7.47521E-005	1.98858	501.856
243.5000	-10.5236	1.94757E-005	2.0062	504.79
243.0000	-10.7987	-4.14489E-005	2.02444	507.873
242.5000	-11.5689	-1.90715E-006	2.04553	511.466
242.0000	-11.9764	-6.06441E-005	2.06507	514.803
241.5000	-11.1826	-0.000163892	2.08809	518.746
241.0000	-12.1682	-0.000215852	2.11053	522.602
240.5000	-11.2808	-0.000172715	2.13692	527.223
240.0000	-11.0363	-0.000116539	2.1627	531.749
239.5000	-12.3212	-0.00010979	2.19505	537.449
239.0000	-12.7113	-0.000114135	2.22546	542.803
238.5000	-12.2954	-4.43669E-005	2.25985	548.902
238.0000	-12.305	0.000168973	2.29856	555.87
237.5000	-11.473	0.00016361	2.3359	562.67
237.0000	-10.0485	0.000312753	2.37791	570.379
236.5000	-9.79513	0.000289456	2.42258	578.653
236.0000	-11.1693	0.000209029	2.46741	587.025
235.5000	-9.52293	0.000197829	2.52211	597.401
235.0000	-9.79534	0.000105412	2.56103	604.874
234.5000	-11.58	-7.78842E-005	2.6041	613.21
234.0000	-11.0787	-0.000228442	2.65163	622.49
233.5000	-10.0913	-0.000202036	2.70652	633.311
233.0000	-11.8772	-0.000252146	2.76626	645.258
232.5000	-9.505	-0.000205001	2.82467	657.171
232.0000	-9.95202	-0.00039008	2.89388	671.565
231.5000	-9.5828	-0.000520098	2.95147	683.793
231.0000	-8.91647	-0.000628896	3.01572	697.688
230.5000	-8.4989	-0.000600515	3.07955	711.838
230.0000	-9.07137	-0.00100547	3.13925	725.423
229.5000	-8.30702	-0.00112903	3.20087	739.729
229.0000	-9.40596	-0.00124749	3.26047	753.915
228.5000	-5.83887	-0.00147783	3.31773	767.837
228.0000	-5.17799	-0.00138755	3.36941	780.719
227.5000	-4.11411	-0.00129608	3.42015	793.818
227.0000	-6.30925	-0.00114772	3.46724	806.342
226.5000	-6.60731	-0.00115483	3.51269	818.805
226.0000	-5.88285	-0.00070245	3.54979	829.4
225.5000	-6.89657	-0.000663784	3.58461	839.781
225.0000	-8.7436	-0.000678645	3.61456	849.303
224.5000	-5.61464	-0.000673317	3.63988	857.924
224.0000	-7.42648	-0.000285194	3.66096	865.622
223.5000	-8.00918	-0.000330213	3.67799	872.368
223.0000	-9.92883	-1.65891E-005	3.69093	878.161
222.5000	-12.9724	-0.000133015	3.70094	883.962
222.0000	-10.0094	-4.67176E-005	3.70561	888.25
221.5000	-12.5166	0.000167418	3.70645	891.817
221.0000	-8.113	0.000184413	3.70465	894.28
220.5000	-9.03144	0.000468854	3.7003	896.165
220.0000	-13.5556	0.000331685	3.69375	897.7

##### Extended Information
[Comments]
Sample name	JS187+JS190_5E-5_H2O_54-46
Comment
User
Division
Company	Labo systeme complexes hors equilibre

[Detailed Information]
Creation date	1/23/2024 11:45 AM

Data array type	Linear data array * 4
Horizontal axis	Wavelength [nm]
Vertical axis(1)	CD [mdeg]
Vertical axis(2)	LD [dOD]
Vertical axis(3)	Abs
Vertical axis(4)	HT [V]
Start	700 nm
End	220 nm
Data interval	0.5 nm
Data points	961     

[Measurement Information]
Instrument name	CD Jasco
Model name	J-1500
Serial No.	A005261638

Detector	PM-539
Detector S/N	A0052PM539
  Lock-in amp.	X mode
  HT volt	Auto

Detector	EXPML-535
Detector S/N	A0001
  Lock-in amp.	X mode
  HT volt	Auto

Measurement date	1/23/2024 11:45 AM

Overload detect	1
Photometric mode	CD, LD, Abs, HT
Measure range	700 - 220 nm
Data pitch	0.5 nm
CD scale	200 mdeg/1.0 dOD
FL scale	200 mdeg/1.0 dOD
D.I.T.	1 sec
Bandwidth	1.00 nm
Start mode	Immediately
Scanning speed	500 nm/min
Baseline correction	Baseline
Shutter control	Auto


