TITLE	JS187+JS190_5E-5_H2O_80-20
DATA TYPE	
ORIGIN	JASCO
OWNER	
DATE	24/01/23
TIME	11:04:14
SPECTROMETER/DATA SYSTEM	
LOCALE	1033
RESOLUTION	
DELTAX	-0.5
XUNITS	NANOMETERS
YUNITS	CD [mdeg]
Y2UNITS	LD [dOD]
Y3UNITS	ABSORBANCE
Y4UNITS	HT [V]
FIRSTX	  700.0000
LASTX	  220.0000
NPOINTS	     961
FIRSTY	     0.65543
MAXY	    20.14413
MINY	   -26.73871
XYDATA
700.0000	0.655425	1.78382E-005	-0.0582317	298.816
699.5000	0.366696	6.31038E-006	-0.0593667	298.508
699.0000	0.201256	1.85189E-006	-0.0607609	298.13
698.5000	0.425998	2.00275E-005	-0.0616752	297.714
698.0000	0.354242	9.56232E-006	-0.0629902	297.262
697.5000	0.121824	2.01844E-005	-0.0646873	296.799
697.0000	-0.0722318	4.82744E-005	-0.0667619	296.283
696.5000	-0.0837668	5.11391E-005	-0.0679066	295.772
696.0000	-0.117616	6.43123E-005	-0.0684099	295.206
695.5000	-0.0296479	5.04374E-005	-0.0685097	294.68
695.0000	0.0219108	3.00507E-005	-0.0679906	294.212
694.5000	-0.170982	3.97849E-006	-0.0672849	293.782
694.0000	-0.0753417	6.90268E-006	-0.0654944	293.378
693.5000	-0.0249318	2.1374E-005	-0.0632847	293.017
693.0000	-0.039636	2.98434E-005	-0.0603638	292.72
692.5000	-0.358265	2.87754E-005	-0.0574421	292.447
692.0000	-0.269553	4.55198E-005	-0.0545934	292.206
691.5000	0.0145374	2.93815E-005	-0.0513966	292.007
691.0000	0.0805748	2.37458E-005	-0.0484035	291.808
690.5000	-0.0854283	4.04872E-005	-0.0463046	291.629
690.0000	0.0857124	2.80855E-005	-0.0444523	291.474
689.5000	0.128208	2.16984E-005	-0.0423138	291.368
689.0000	0.188142	1.17504E-005	-0.0391108	291.344
688.5000	0.291229	-5.00306E-006	-0.0356101	291.427
688.0000	0.0465764	1.37886E-006	-0.0314072	291.601
687.5000	0.045835	1.78332E-005	-0.0270158	291.84
687.0000	-0.131162	2.42139E-005	-0.0234398	292.081
686.5000	-0.155246	2.41075E-005	-0.0206801	292.336
686.0000	-0.0336535	2.24259E-005	-0.0194418	292.581
685.5000	0.0171164	2.57403E-005	-0.0192399	292.831
685.0000	-0.218715	1.90391E-005	-0.019669	293.058
684.5000	-0.309133	8.90544E-006	-0.0206254	293.278
684.0000	-0.0176911	4.40873E-007	-0.0221097	293.487
683.5000	-0.145341	2.70909E-006	-0.0231026	293.703
683.0000	-0.324715	1.3013E-005	-0.0240061	293.941
682.5000	-0.409829	7.46077E-006	-0.0242124	294.199
682.0000	0.0803587	5.51598E-006	-0.0245011	294.487
681.5000	0.113731	-1.89715E-006	-0.0244159	294.763
681.0000	0.23193	2.22904E-005	-0.0245675	295.029
680.5000	0.488957	2.30834E-005	-0.0252895	295.219
680.0000	0.423875	1.76483E-005	-0.027451	295.343
679.5000	0.38334	-9.04994E-006	-0.0301331	295.411
679.0000	0.435745	-8.82164E-006	-0.0337865	295.434
678.5000	0.424672	-1.25749E-006	-0.0361855	295.441
678.0000	0.659429	8.91295E-006	-0.0383649	295.429
677.5000	0.705256	1.62664E-005	-0.0397605	295.401
677.0000	0.748301	1.83267E-005	-0.0403204	295.379
676.5000	0.803762	1.29779E-005	-0.0400694	295.364
676.0000	0.801348	3.97167E-006	-0.0397035	295.356
675.5000	0.845915	2.51759E-006	-0.039199	295.36
675.0000	0.707574	-9.27064E-006	-0.0386327	295.356
674.5000	0.815412	-1.49527E-005	-0.0374517	295.379
674.0000	0.466583	-3.3753E-006	-0.0362914	295.403
673.5000	0.462707	3.10885E-006	-0.035182	295.422
673.0000	0.118549	3.92354E-006	-0.0348428	295.463
672.5000	-0.209004	-2.05874E-005	-0.0345531	295.509
672.0000	-0.128825	1.22189E-005	-0.0339292	295.563
671.5000	-0.161183	2.42826E-005	-0.0328436	295.619
671.0000	-0.28285	2.026E-005	-0.0317896	295.674
670.5000	-0.214484	3.67878E-005	-0.0304645	295.738
670.0000	-0.567626	4.01801E-005	-0.0293914	295.8
669.5000	-0.550785	2.16826E-005	-0.0287575	295.875
669.0000	-0.405772	2.24731E-005	-0.0280525	295.954
668.5000	-0.217618	1.40265E-005	-0.0272892	296.042
668.0000	-0.244338	-7.73568E-006	-0.0266662	296.149
667.5000	-0.0873177	2.26962E-006	-0.0261954	296.259
667.0000	-0.185927	1.01364E-005	-0.0259123	296.378
666.5000	-0.281084	-4.65931E-007	-0.0257542	296.484
666.0000	-0.143003	1.69601E-005	-0.026225	296.606
665.5000	-0.218119	6.10908E-006	-0.0261897	296.735
665.0000	-0.180058	2.40933E-006	-0.0253198	296.869
664.5000	0.148815	1.37291E-005	-0.0242993	296.987
664.0000	-0.0465112	8.19415E-006	-0.0240559	297.097
663.5000	0.118597	7.95126E-006	-0.0248098	297.205
663.0000	0.298609	9.69171E-006	-0.0248851	297.298
662.5000	0.23434	4.58812E-006	-0.0251401	297.379
662.0000	0.259002	-1.33126E-005	-0.0254651	297.448
661.5000	0.195215	-1.24006E-005	-0.0253161	297.5
661.0000	0.154539	-1.03511E-005	-0.0255999	297.538
660.5000	0.0609022	2.83397E-005	-0.0259588	297.576
660.0000	0.185034	2.15134E-005	-0.026125	297.598
659.5000	0.14321	4.00015E-005	-0.0268117	297.603
659.0000	0.109261	3.67077E-005	-0.0273273	297.588
658.5000	0.0520918	3.9685E-005	-0.0276914	297.554
658.0000	-0.12452	1.8563E-005	-0.0276961	297.503
657.5000	0.204503	2.66061E-005	-0.0283024	297.43
657.0000	0.143557	3.66813E-005	-0.0280414	297.336
656.5000	0.200655	3.0325E-005	-0.0290125	297.209
656.0000	0.342203	2.71262E-005	-0.0297904	297.076
655.5000	0.563894	2.01538E-005	-0.0291655	296.926
655.0000	0.480254	3.48546E-005	-0.0291721	296.768
654.5000	0.652541	3.72543E-005	-0.0295877	296.619
654.0000	0.602794	4.32042E-005	-0.0289734	296.491
653.5000	0.634289	6.25547E-005	-0.0274954	296.386
653.0000	0.710528	7.17626E-005	-0.0255206	296.308
652.5000	0.585216	9.28383E-005	-0.0236227	296.249
652.0000	0.801309	8.0995E-005	-0.0216279	296.208
651.5000	0.572209	9.8363E-005	-0.0191127	296.198
651.0000	0.593477	7.1483E-005	-0.0160516	296.223
650.5000	0.528177	9.17947E-005	-0.0136916	296.278
650.0000	0.961683	9.59121E-005	-0.0109326	296.356
649.5000	0.81993	0.0001059	-0.00862794	296.465
649.0000	0.876449	0.000107111	-0.00623165	296.582
648.5000	1.1745	8.97395E-005	-0.00461415	296.736
648.0000	1.17237	0.000110757	-0.00268714	296.909
647.5000	1.03129	0.000127258	-0.00093843	297.091
647.0000	1.10593	0.000125054	0.000267838	297.294
646.5000	1.08671	0.000108073	0.00122096	297.494
646.0000	1.16075	0.000107186	0.00298754	297.689
645.5000	1.31941	0.000107467	0.00368935	297.856
645.0000	1.35392	0.000102978	0.00301946	297.989
644.5000	1.39061	0.000104806	0.0028127	298.119
644.0000	1.34794	0.000103992	0.00256237	298.208
643.5000	1.39007	9.34776E-005	0.00194969	298.274
643.0000	1.72888	0.000107906	0.0014448	298.322
642.5000	1.90857	0.000119694	0.000891166	298.338
642.0000	2.10125	0.000136348	0.000541212	298.336
641.5000	1.86737	0.000140015	5.83497E-005	298.314
641.0000	2.10876	0.000121103	0.000125748	298.297
640.5000	1.99487	0.000143415	0.000474181	298.256
640.0000	1.9676	0.000145377	0.00109014	298.208
639.5000	1.93293	0.000125795	0.0021125	298.155
639.0000	1.8084	0.000113249	0.00287039	298.093
638.5000	1.86	9.83443E-005	0.00403758	298.018
638.0000	1.85769	9.70595E-005	0.0046068	297.939
637.5000	1.88015	0.000118753	0.00501661	297.862
637.0000	1.82396	0.000123916	0.00637805	297.792
636.5000	1.92374	0.000108238	0.00741303	297.718
636.0000	1.87792	9.94452E-005	0.00781226	297.652
635.5000	1.90881	0.000113609	0.00835984	297.592
635.0000	1.70515	0.000124799	0.00933909	297.536
634.5000	1.49295	0.000103742	0.0104004	297.502
634.0000	1.11981	0.000109837	0.0113289	297.466
633.5000	1.12182	9.77182E-005	0.0118486	297.431
633.0000	0.945132	9.63704E-005	0.0128579	297.395
632.5000	0.752272	9.53242E-005	0.0131133	297.35
632.0000	0.962225	8.61831E-005	0.0134929	297.316
631.5000	0.893141	8.38973E-005	0.0141295	297.279
631.0000	1.17223	0.000114912	0.0146158	297.232
630.5000	1.12067	0.000108477	0.0150912	297.186
630.0000	0.987755	0.000132892	0.0156305	297.139
629.5000	1.12216	0.000144552	0.0162814	297.089
629.0000	1.03335	0.000153115	0.0167603	297.045
628.5000	1.15129	0.000145371	0.0170024	296.998
628.0000	1.11253	0.000157973	0.0174329	296.942
627.5000	1.04874	0.000160979	0.0182824	296.894
627.0000	0.845845	0.000157236	0.018595	296.843
626.5000	0.734262	0.000154677	0.0186045	296.794
626.0000	0.556651	0.000151914	0.0187263	296.747
625.5000	0.717175	0.000162339	0.0195355	296.705
625.0000	0.753355	0.000162102	0.020459	296.669
624.5000	0.948447	0.000159792	0.0214498	296.641
624.0000	0.904789	0.000172746	0.0223345	296.623
623.5000	0.750624	0.000186836	0.0234283	296.63
623.0000	0.522279	0.000188735	0.0244733	296.648
622.5000	0.433144	0.000199198	0.0257673	296.686
622.0000	0.248814	0.000200969	0.0267059	296.727
621.5000	0.308615	0.000198497	0.0277151	296.781
621.0000	0.247087	0.000198113	0.0285941	296.828
620.5000	0.194452	0.00018376	0.0292992	296.894
620.0000	-0.0310125	0.000191792	0.0299848	296.981
619.5000	0.0402892	0.000191591	0.0311159	297.1
619.0000	0.201063	0.000187987	0.0325298	297.22
618.5000	0.302678	0.000183748	0.0344245	297.361
618.0000	0.247643	0.000171393	0.036364	297.508
617.5000	0.57704	0.000181009	0.0371194	297.645
617.0000	0.424273	0.000184725	0.0377125	297.799
616.5000	0.377498	0.000192193	0.0382893	297.947
616.0000	0.600793	0.00018902	0.0393058	298.093
615.5000	0.584441	0.000168327	0.0397408	298.223
615.0000	0.817191	0.000177846	0.0401455	298.358
614.5000	1.03318	0.000182183	0.0403514	298.491
614.0000	0.983655	0.000166748	0.0405982	298.624
613.5000	0.815699	0.000157277	0.0411619	298.766
613.0000	0.684548	0.000151075	0.0417612	298.927
612.5000	0.817387	0.000147683	0.0422773	299.071
612.0000	0.874828	0.000146636	0.0428053	299.204
611.5000	0.624103	0.000146337	0.0435277	299.326
611.0000	0.440085	0.000142551	0.0439382	299.468
610.5000	0.603679	0.000140459	0.0442419	299.607
610.0000	0.834556	0.000151687	0.0441844	299.718
609.5000	0.684153	0.000142086	0.0448196	299.834
609.0000	0.517816	0.000142175	0.0454386	299.945
608.5000	0.626299	0.000137991	0.0465143	300.065
608.0000	0.545661	0.000136462	0.0469627	300.155
607.5000	0.101297	0.000139582	0.0471639	300.261
607.0000	0.22525	0.000122849	0.0478961	300.382
606.5000	-0.0271817	0.000111281	0.0485829	300.486
606.0000	-0.14691	0.000133254	0.0499256	300.586
605.5000	-0.272622	0.000155419	0.0508775	300.678
605.0000	-0.194407	0.00016322	0.0520209	300.754
604.5000	0.00527853	0.000166038	0.0529477	300.831
604.0000	-0.327273	0.000182369	0.0541574	300.908
603.5000	-0.417849	0.000181232	0.0556377	300.994
603.0000	-0.202897	0.000179886	0.0565122	301.063
602.5000	-0.296754	0.000172221	0.0579404	301.137
602.0000	-0.15053	0.000180549	0.059467	301.205
601.5000	-0.293469	0.000169022	0.0609133	301.277
601.0000	-0.365348	0.000173614	0.0624172	301.354
600.5000	-0.229077	0.000176579	0.0643578	301.42
600.0000	-0.346661	0.000192565	0.0660036	301.482
599.5000	-0.281011	0.000215824	0.0684984	301.54
599.0000	-0.320792	0.000236881	0.0704787	301.583
598.5000	-0.457866	0.000264807	0.0730261	301.623
598.0000	-0.418715	0.000247978	0.0752181	301.668
597.5000	-0.355119	0.000236941	0.0771994	301.711
597.0000	-0.332203	0.000223733	0.079771	301.781
596.5000	-0.528189	0.000219965	0.0823718	301.83
596.0000	-0.538239	0.000245907	0.0851003	301.885
595.5000	-0.482023	0.000225649	0.0877195	301.945
595.0000	-0.562556	0.000238448	0.0904862	301.981
594.5000	-0.383613	0.000239875	0.0934016	302.031
594.0000	-0.292113	0.000263934	0.0958611	302.09
593.5000	-0.268707	0.000270583	0.0988987	302.149
593.0000	-0.0269446	0.000280649	0.10234	302.214
592.5000	-0.0443478	0.000293374	0.10541	302.31
592.0000	0.147223	0.000286234	0.108494	302.429
591.5000	0.108427	0.00027502	0.111112	302.533
591.0000	0.0386714	0.000259842	0.114509	302.666
590.5000	0.142361	0.000249024	0.117832	302.833
590.0000	0.321386	0.000259349	0.121236	302.999
589.5000	0.502762	0.0002728	0.125059	303.19
589.0000	0.654481	0.000265621	0.128909	303.388
588.5000	0.954467	0.000277567	0.132647	303.601
588.0000	1.22643	0.000287771	0.136912	303.849
587.5000	1.50004	0.000288261	0.141362	304.13
587.0000	1.58309	0.000278333	0.145934	304.46
586.5000	1.57988	0.000267808	0.150226	304.772
586.0000	1.48101	0.000280172	0.155413	305.12
585.5000	1.60936	0.000269013	0.160277	305.49
585.0000	1.71337	0.000271329	0.165191	305.88
584.5000	1.84635	0.000296079	0.170179	306.279
584.0000	1.9011	0.000316304	0.175824	306.717
583.5000	1.99085	0.000314784	0.181779	307.182
583.0000	2.04915	0.000327408	0.188509	307.702
582.5000	2.21895	0.000353464	0.195106	308.249
582.0000	2.43481	0.000370935	0.201906	308.813
581.5000	2.54256	0.000415984	0.209221	309.431
581.0000	2.41571	0.000418763	0.217115	310.082
580.5000	2.61352	0.000418617	0.225234	310.762
580.0000	2.73261	0.00041169	0.23324	311.451
579.5000	2.8509	0.000411317	0.241448	312.175
579.0000	3.29249	0.000444183	0.250026	312.926
578.5000	3.68619	0.000481571	0.259349	313.709
578.0000	3.99777	0.000506823	0.268841	314.542
577.5000	4.32828	0.00052376	0.278619	315.461
577.0000	4.72387	0.000564369	0.289232	316.378
576.5000	5.10396	0.000566501	0.300893	317.395
576.0000	5.65167	0.000562837	0.312375	318.403
575.5000	6.12233	0.000592748	0.324684	319.48
575.0000	6.62403	0.000615651	0.335901	320.509
574.5000	7.31914	0.000643074	0.3485	321.647
574.0000	7.9894	0.000660326	0.361345	322.783
573.5000	8.47532	0.000674407	0.3745	323.966
573.0000	9.17846	0.000679784	0.388197	325.254
572.5000	9.94562	0.00071252	0.401185	326.483
572.0000	10.6585	0.000756721	0.415981	327.905
571.5000	11.4435	0.000793657	0.430894	329.32
571.0000	12.1241	0.000824461	0.4472	330.823
570.5000	12.6353	0.000852872	0.463541	332.39
570.0000	13.4085	0.000880716	0.479438	333.93
569.5000	14.0957	0.000899801	0.496693	335.55
569.0000	14.5844	0.000919734	0.514115	337.189
568.5000	15.2365	0.00094245	0.530227	338.768
568.0000	16.0816	0.00096919	0.546734	340.422
567.5000	16.9593	0.000994178	0.563541	342.106
567.0000	17.2398	0.00100122	0.580184	343.74
566.5000	17.8549	0.00101187	0.596627	345.34
566.0000	17.9027	0.00103194	0.612844	346.922
565.5000	18.6464	0.00105376	0.628504	348.487
565.0000	19.3924	0.00107496	0.644028	350.008
564.5000	19.382	0.00109945	0.659435	351.514
564.0000	19.7123	0.0010892	0.673878	352.892
563.5000	19.8372	0.00109925	0.687391	354.211
563.0000	20.1441	0.00111491	0.700874	355.561
562.5000	20.1252	0.00111732	0.713402	356.789
562.0000	20.1391	0.00109911	0.725365	357.955
561.5000	20.0138	0.00108193	0.73822	359.167
561.0000	20.1076	0.00109148	0.749858	360.293
560.5000	20.0737	0.00109309	0.760493	361.325
560.0000	20.021	0.0011057	0.770692	362.281
559.5000	20.0111	0.0011042	0.78021	363.117
559.0000	19.6821	0.00110544	0.788177	363.81
558.5000	19.2414	0.00109052	0.79501	364.42
558.0000	19.2341	0.00107966	0.800552	364.899
557.5000	18.9064	0.0010724	0.805714	365.301
557.0000	18.129	0.00105144	0.81012	365.604
556.5000	17.7814	0.00104555	0.813352	365.83
556.0000	17.3405	0.00103757	0.815306	365.971
555.5000	16.8369	0.00104269	0.816927	366.038
555.0000	16.4775	0.00103342	0.817706	365.991
554.5000	16.0651	0.00100076	0.818061	365.853
554.0000	15.7122	0.000987803	0.817047	365.627
553.5000	15.3763	0.000973973	0.815502	365.341
553.0000	14.6512	0.00097769	0.813514	365.016
552.5000	14.1129	0.00096321	0.811704	364.656
552.0000	13.8804	0.000926243	0.809199	364.214
551.5000	13.5168	0.000888988	0.806511	363.766
551.0000	12.806	0.000882098	0.803138	363.288
550.5000	12.7967	0.000866016	0.7993	362.742
550.0000	12.4433	0.000906431	0.795379	362.157
549.5000	12.1634	0.000905212	0.791875	361.599
549.0000	12.0586	0.000900517	0.787739	361.037
548.5000	11.9736	0.000887909	0.783602	360.488
548.0000	11.8485	0.00087832	0.780362	359.908
547.5000	11.8064	0.000894059	0.77739	359.384
547.0000	11.9182	0.000886026	0.774475	358.844
546.5000	11.9075	0.000886273	0.771593	358.377
546.0000	11.6352	0.000889764	0.768531	357.966
545.5000	11.7402	0.000935899	0.76662	357.564
545.0000	11.7376	0.000948825	0.765057	357.251
544.5000	12.0939	0.000941954	0.763729	356.951
544.0000	12.3667	0.000970515	0.762509	356.711
543.5000	12.1703	0.000989925	0.761908	356.526
543.0000	12.6018	0.00100171	0.761946	356.393
542.5000	12.8913	0.000997123	0.76269	356.305
542.0000	13.2378	0.000992397	0.763707	356.284
541.5000	13.3855	0.000985682	0.765199	356.335
541.0000	13.832	0.00096499	0.766774	356.419
540.5000	14.1169	0.000989646	0.769642	356.566
540.0000	14.5067	0.000988652	0.773247	356.777
539.5000	14.6363	0.000989535	0.776908	357.05
539.0000	15.3054	0.000982206	0.78097	357.404
538.5000	15.2906	0.00097158	0.785765	357.817
538.0000	16.0805	0.00100069	0.791115	358.246
537.5000	16.5306	0.000999962	0.797035	358.748
537.0000	16.8362	0.000966548	0.803333	359.317
536.5000	17.0879	0.00100053	0.809987	359.909
536.0000	17.3022	0.000997254	0.817617	360.59
535.5000	17.6402	0.000999205	0.825297	361.287
535.0000	17.8691	0.00102111	0.833806	362.057
534.5000	18.0065	0.00103351	0.842019	362.809
534.0000	18.276	0.00104664	0.850727	363.621
533.5000	18.3343	0.00103864	0.859861	364.505
533.0000	18.6577	0.00106602	0.868706	365.37
532.5000	18.555	0.00108988	0.877909	366.284
532.0000	18.5453	0.00108218	0.88785	367.267
531.5000	18.8859	0.0011133	0.898073	368.268
531.0000	18.7359	0.00110427	0.909366	369.324
530.5000	18.9759	0.00113749	0.919996	370.351
530.0000	18.6945	0.00113606	0.931032	371.446
529.5000	18.2485	0.00110233	0.941734	372.505
529.0000	18.6003	0.001146	0.952071	373.495
528.5000	18.4404	0.00116051	0.962266	374.496
528.0000	18.4705	0.00115171	0.971895	375.438
527.5000	18.2007	0.00112455	0.981943	376.399
527.0000	17.8263	0.00110818	0.992937	377.456
526.5000	17.0532	0.00107256	1.00303	378.453
526.0000	16.6033	0.00108587	1.01369	379.481
525.5000	16.4832	0.00107693	1.02396	380.464
525.0000	16.2147	0.00108925	1.03377	381.402
524.5000	15.931	0.00105579	1.04297	382.258
524.0000	15.2857	0.00106056	1.05144	383.038
523.5000	14.7204	0.00103917	1.05964	383.826
523.0000	14.3204	0.00107097	1.06747	384.572
522.5000	13.4874	0.00107118	1.07438	385.244
522.0000	13.4123	0.00108167	1.08165	385.926
521.5000	12.9983	0.00108858	1.08878	386.567
521.0000	12.0847	0.00108646	1.09539	387.17
520.5000	11.4818	0.00105725	1.10175	387.746
520.0000	10.9505	0.00103853	1.10729	388.242
519.5000	10.2176	0.00104932	1.11302	388.727
519.0000	10.1651	0.00106912	1.11811	389.168
518.5000	9.82849	0.00111907	1.1225	389.567
518.0000	9.09356	0.00111407	1.12735	389.978
517.5000	8.69427	0.00109418	1.13223	390.384
517.0000	8.42971	0.00111457	1.13705	390.757
516.5000	7.80724	0.00111143	1.14161	391.094
516.0000	7.50613	0.00112084	1.14585	391.42
515.5000	7.05121	0.00110481	1.14949	391.73
515.0000	6.34	0.00102129	1.15289	392
514.5000	5.85918	0.00101329	1.15623	392.279
514.0000	5.86315	0.00098306	1.15936	392.523
513.5000	5.20512	0.000940966	1.16258	392.767
513.0000	5.37364	0.000901521	1.16549	393.017
512.5000	4.78344	0.00090274	1.16878	393.282
512.0000	4.56736	0.000867005	1.17205	393.537
511.5000	4.2021	0.0008748	1.17479	393.775
511.0000	3.69208	0.000852222	1.17767	394.009
510.5000	2.95607	0.000799915	1.1807	394.232
510.0000	2.95094	0.000780029	1.18364	394.447
509.5000	2.62614	0.000779447	1.1862	394.635
509.0000	2.67269	0.000802198	1.18862	394.823
508.5000	2.30259	0.000745369	1.19093	394.984
508.0000	1.72451	0.000704136	1.19367	395.16
507.5000	1.49961	0.000700505	1.19633	395.317
507.0000	1.4059	0.000731887	1.19913	395.483
506.5000	1.44202	0.000733453	1.20181	395.639
506.0000	1.20933	0.000738982	1.20402	395.789
505.5000	0.42697	0.000766833	1.2063	395.946
505.0000	0.131972	0.000766918	1.20859	396.095
504.5000	-0.187908	0.000782273	1.21098	396.24
504.0000	-0.4448	0.000796045	1.21298	396.346
503.5000	-0.708981	0.000793131	1.21471	396.427
503.0000	-0.81863	0.000785699	1.21645	396.489
502.5000	-0.92884	0.000791863	1.21792	396.542
502.0000	-0.956715	0.000806481	1.21922	396.582
501.5000	-1.0598	0.000806413	1.22043	396.591
501.0000	-1.84443	0.000779768	1.22164	396.585
500.5000	-2.54556	0.000756902	1.22271	396.533
500.0000	-2.76032	0.000766385	1.2234	396.419
499.5000	-2.63319	0.000771479	1.2231	396.214
499.0000	-3.61783	0.000760638	1.22236	395.877
498.5000	-4.28468	0.000735691	1.22118	395.398
498.0000	-4.73994	0.000740855	1.21975	394.79
497.5000	-5.07241	0.000678613	1.21853	394.025
497.0000	-5.32049	0.000647674	1.21805	393.24
496.5000	-5.61408	0.000654654	1.21875	392.517
496.0000	-5.64979	0.000563015	1.2209	392.025
495.5000	-5.50208	0.000594974	1.22324	391.702
495.0000	-6.243	0.000544253	1.22402	391.437
494.5000	-7.27494	0.000537517	1.22387	391.183
494.0000	-7.59242	0.000528055	1.22321	390.92
493.5000	-8.67217	0.000509257	1.22224	390.619
493.0000	-9.53362	0.000482971	1.22141	390.349
492.5000	-9.78468	0.000451727	1.22055	390.077
492.0000	-10.6235	0.000413181	1.21941	389.79
491.5000	-11.4114	0.000435247	1.21807	389.529
491.0000	-11.9122	0.000409737	1.21694	389.293
490.5000	-12.1782	0.000375222	1.21561	389.076
490.0000	-12.6945	0.000334022	1.21409	388.894
489.5000	-13.4319	0.000331202	1.21232	388.75
489.0000	-14.2824	0.000345079	1.20982	388.554
488.5000	-14.9069	0.000332976	1.20592	388.211
488.0000	-15.613	0.000333115	1.20011	387.566
487.5000	-16.5424	0.000320307	1.19386	386.691
487.0000	-17.1178	0.000288012	1.1889	385.751
486.5000	-17.5413	0.000293433	1.18358	384.634
486.0000	-18.0012	0.000269313	1.17898	383.548
485.5000	-18.2693	0.000268148	1.17594	382.517
485.0000	-18.9081	0.000232945	1.17403	381.62
484.5000	-19.2319	0.000233274	1.17133	380.832
484.0000	-19.9204	0.000221746	1.16761	380.076
483.5000	-20.3789	0.00017006	1.16368	379.392
483.0000	-20.4553	0.000148825	1.15897	378.711
482.5000	-21.2246	0.000134785	1.15417	378.116
482.0000	-21.5278	0.000109089	1.14898	377.542
481.5000	-22.5773	0.000132023	1.14372	376.957
481.0000	-22.446	0.000144859	1.13867	376.404
480.5000	-22.3841	0.000125884	1.13339	375.877
480.0000	-22.806	0.000129998	1.12748	375.323
479.5000	-23.1856	0.000119604	1.12084	374.698
479.0000	-23.3556	0.000100669	1.11154	373.805
478.5000	-23.5775	0.000111319	1.10188	372.678
478.0000	-23.8351	0.000106016	1.09448	371.424
477.5000	-24.3271	0.00010338	1.09135	370.474
477.0000	-24.4283	9.20986E-005	1.0879	369.687
476.5000	-24.2706	0.000100583	1.07914	368.596
476.0000	-24.7603	8.69095E-005	1.06876	367.263
475.5000	-24.5168	0.000110351	1.05817	365.692
475.0000	-24.5961	0.000113995	1.04781	363.924
474.5000	-25.1404	0.000125681	1.03863	362.099
474.0000	-25.1656	0.000121168	1.02975	360.123
473.5000	-24.8096	0.000129129	1.02008	357.879
473.0000	-25.0795	9.67394E-005	1.0107	355.506
472.5000	-25.3247	9.3185E-005	1.00334	353.122
472.0000	-25.5312	9.24368E-005	0.999564	351.212
471.5000	-25.5853	7.80725E-005	0.996688	349.688
471.0000	-25.7889	0.00010452	0.994169	348.749
470.5000	-26.3191	9.46689E-005	0.991745	348.14
470.0000	-26.3037	9.25219E-005	0.98782	347.77
469.5000	-26.3306	9.5531E-005	0.979377	347.237
469.0000	-26.1624	0.000108513	0.965297	346.148
468.5000	-26.4219	0.000109081	0.952327	344.753
468.0000	-26.1173	8.89808E-005	0.942926	343.39
467.5000	-26.2605	0.000103049	0.936236	342.282
467.0000	-26.4144	0.000114763	0.931048	341.436
466.5000	-26.4266	0.000102833	0.926265	340.81
466.0000	-26.7387	0.000120765	0.920561	340.366
465.5000	-26.6978	0.0001182	0.914529	340.153
465.0000	-26.4641	0.000160828	0.9077	340.181
464.5000	-26.3659	0.000173165	0.898054	340.232
464.0000	-26.5417	0.000155341	0.884852	339.991
463.5000	-26.2025	0.000158675	0.869916	339.354
463.0000	-26.3154	0.000169597	0.856076	338.449
462.5000	-26.0464	0.000173693	0.844627	337.458
462.0000	-25.8759	0.000181046	0.834727	336.454
461.5000	-25.844	0.000180615	0.825771	335.574
461.0000	-25.6576	0.000158245	0.817225	334.854
460.5000	-25.4717	0.000169498	0.807972	334.225
460.0000	-24.9843	0.00020468	0.798732	333.686
459.5000	-25.0133	0.000189481	0.788816	333.175
459.0000	-24.7606	0.00020627	0.777211	332.54
458.5000	-24.3833	0.00022141	0.765133	331.813
458.0000	-23.8951	0.000236319	0.752093	330.877
457.5000	-23.384	0.000244369	0.738879	329.711
457.0000	-23.1478	0.000247305	0.726669	328.408
456.5000	-23.1654	0.000226054	0.716858	327.222
456.0000	-22.8342	0.000252629	0.706057	326.057
455.5000	-22.6654	0.000257168	0.692192	324.613
455.0000	-22.378	0.000275056	0.679883	323.139
454.5000	-22.1744	0.000271985	0.670892	321.863
454.0000	-21.8702	0.000275485	0.662577	320.834
453.5000	-21.474	0.000307728	0.652204	319.918
453.0000	-21.2717	0.000304425	0.641268	319.02
452.5000	-21.094	0.000314064	0.630533	318.097
452.0000	-20.8365	0.000327882	0.619896	317.123
451.5000	-20.5048	0.000310486	0.608808	316.111
451.0000	-20.2967	0.00032225	0.598239	315.141
450.5000	-19.9517	0.000325329	0.587276	314.119
450.0000	-19.7388	0.000330687	0.577778	313.192
449.5000	-19.4736	0.000341563	0.569621	312.433
449.0000	-19.1626	0.000342124	0.561849	311.838
448.5000	-19.1288	0.000344927	0.551598	311.156
448.0000	-18.64	0.000344361	0.540929	310.371
447.5000	-18.1383	0.000347274	0.533087	309.728
447.0000	-17.9043	0.000343696	0.527278	309.347
446.5000	-17.4518	0.000352078	0.519795	309.031
446.0000	-17.383	0.000354298	0.507999	308.433
445.5000	-17.3492	0.000341035	0.496406	307.579
445.0000	-16.9333	0.000338575	0.486673	306.625
444.5000	-16.5593	0.000361002	0.477379	305.636
444.0000	-16.1232	0.000370635	0.468455	304.657
443.5000	-15.8295	0.000388448	0.4596	303.617
443.0000	-15.7447	0.000396169	0.452292	302.713
442.5000	-15.433	0.00041641	0.445345	301.854
442.0000	-15.0871	0.000419545	0.438955	301.122
441.5000	-14.6978	0.000425596	0.431622	300.335
441.0000	-14.5342	0.000433879	0.424793	299.614
440.5000	-14.5049	0.000441977	0.41798	298.898
440.0000	-14.0696	0.000447641	0.410895	298.163
439.5000	-13.718	0.000455945	0.403564	297.412
439.0000	-13.537	0.000458709	0.395753	296.624
438.5000	-13.1426	0.000472698	0.387488	295.816
438.0000	-12.8013	0.00048961	0.379251	295.033
437.5000	-12.2976	0.000480685	0.371379	294.275
437.0000	-11.7328	0.000500457	0.36332	293.52
436.5000	-11.442	0.000492445	0.356753	292.871
436.0000	-11.3633	0.000503946	0.350835	292.299
435.5000	-11.2724	0.000502045	0.344208	291.729
435.0000	-11.0269	0.000496012	0.337219	291.164
434.5000	-10.6294	0.000507603	0.330137	290.592
434.0000	-10.3276	0.00050279	0.323124	289.995
433.5000	-10.1859	0.000507651	0.316567	289.41
433.0000	-10.0081	0.000494841	0.310186	288.791
432.5000	-9.67371	0.000521166	0.304058	288.19
432.0000	-9.36949	0.000529902	0.297537	287.559
431.5000	-9.3905	0.000528742	0.291185	286.934
431.0000	-8.92605	0.000533865	0.285049	286.316
430.5000	-8.73562	0.000544552	0.279249	285.718
430.0000	-8.58478	0.000541864	0.273833	285.142
429.5000	-8.43347	0.000546194	0.26808	284.541
429.0000	-8.19662	0.000554977	0.262233	283.926
428.5000	-8.06374	0.000566506	0.256414	283.324
428.0000	-7.88242	0.000568791	0.250198	282.711
427.5000	-7.57107	0.00056442	0.244988	282.17
427.0000	-7.45907	0.000570677	0.23999	281.637
426.5000	-7.27402	0.000568615	0.234965	281.095
426.0000	-7.08303	0.000582056	0.229693	280.511
425.5000	-6.88896	0.000580007	0.224658	279.91
425.0000	-6.7756	0.000582781	0.219334	279.275
424.5000	-6.44673	0.000598724	0.214337	278.637
424.0000	-6.32134	0.000584813	0.21003	278.045
423.5000	-6.31223	0.000584105	0.20637	277.514
423.0000	-6.0395	0.00059592	0.202257	277.008
422.5000	-5.8605	0.000592408	0.198035	276.551
422.0000	-5.69951	0.000588843	0.193644	276.109
421.5000	-5.45999	0.000581095	0.189398	275.689
421.0000	-5.1438	0.000585626	0.185686	275.312
420.5000	-5.0155	0.000583785	0.181733	274.917
420.0000	-4.9586	0.000577369	0.177772	274.508
419.5000	-4.83782	0.000581952	0.173881	274.087
419.0000	-4.63346	0.000580675	0.170088	273.685
418.5000	-4.43109	0.000589705	0.166388	273.328
418.0000	-4.5048	0.000587931	0.163183	272.992
417.5000	-4.34263	0.000591276	0.159921	272.67
417.0000	-4.35497	0.000593317	0.157102	272.374
416.5000	-4.11954	0.000587463	0.154531	272.135
416.0000	-4.10602	0.000584636	0.151611	271.929
415.5000	-3.98041	0.000595315	0.148055	271.681
415.0000	-3.88145	0.000586687	0.144663	271.412
414.5000	-3.84668	0.000577366	0.141533	271.093
414.0000	-3.69828	0.000593224	0.139142	270.798
413.5000	-3.56537	0.000601988	0.136732	270.483
413.0000	-3.71372	0.000609317	0.134549	270.201
412.5000	-3.67695	0.000605587	0.132487	269.954
412.0000	-3.53536	0.000616065	0.130679	269.738
411.5000	-3.24015	0.000624789	0.128554	269.518
411.0000	-3.08306	0.000625128	0.126524	269.31
410.5000	-3.02524	0.000627581	0.124756	269.118
410.0000	-2.95414	0.000623003	0.123153	268.94
409.5000	-2.93598	0.000626831	0.121708	268.788
409.0000	-2.86388	0.000627884	0.120163	268.646
408.5000	-2.59823	0.000626015	0.118309	268.504
408.0000	-2.61763	0.000633378	0.116324	268.364
407.5000	-2.40412	0.000628661	0.114309	268.216
407.0000	-2.27848	0.000614869	0.112623	268.07
406.5000	-2.21193	0.000615775	0.111008	267.915
406.0000	-2.19218	0.000621219	0.109499	267.766
405.5000	-2.11126	0.000623141	0.107655	267.594
405.0000	-2.12312	0.000621148	0.105881	267.405
404.5000	-2.01203	0.000618789	0.104229	267.208
404.0000	-1.95681	0.00061756	0.102909	266.985
403.5000	-1.92613	0.000619994	0.101484	266.73
403.0000	-1.87006	0.00061886	0.100529	266.472
402.5000	-1.71225	0.000619364	0.0992478	266.202
402.0000	-1.84568	0.000615146	0.0985488	265.954
401.5000	-1.73302	0.000620544	0.097831	265.675
401.0000	-1.67696	0.000614278	0.0969745	265.423
400.5000	-1.72375	0.000612729	0.0963586	265.204
400.0000	-1.81775	0.000606775	0.0956726	265.01
399.5000	-1.71632	0.000605198	0.0954715	264.824
399.0000	-1.75499	0.000611849	0.0952918	264.672
398.5000	-1.70988	0.000617655	0.0948415	264.53
398.0000	-1.72649	0.000615927	0.0944595	264.419
397.5000	-1.76777	0.000611837	0.0939519	264.323
397.0000	-1.67809	0.000614994	0.093894	264.261
396.5000	-1.62593	0.000601455	0.0937687	264.24
396.0000	-1.62153	0.000597514	0.0936755	264.24
395.5000	-1.78573	0.000587143	0.0931706	264.261
395.0000	-1.86297	0.000594488	0.0929148	264.319
394.5000	-1.73191	0.000584114	0.0929239	264.414
394.0000	-1.779	0.000591444	0.0928654	264.525
393.5000	-1.70424	0.00058794	0.0923629	264.639
393.0000	-1.77605	0.00057814	0.091859	264.78
392.5000	-1.56601	0.000595692	0.0916587	264.922
392.0000	-1.41108	0.000589122	0.0914315	265.028
391.5000	-1.33247	0.000597622	0.0915414	265.128
391.0000	-1.44643	0.000583712	0.0914462	265.213
390.5000	-1.32491	0.000584122	0.0911095	265.287
390.0000	-1.24658	0.000596037	0.0910041	265.372
389.5000	-1.29244	0.00061477	0.0913232	265.454
389.0000	-1.23538	0.000603749	0.0918344	265.533
388.5000	-1.24137	0.000599908	0.0920553	265.602
388.0000	-1.19811	0.000609876	0.0920647	265.659
387.5000	-1.07854	0.000609938	0.0925221	265.724
387.0000	-0.990459	0.000620256	0.0934009	265.782
386.5000	-1.07727	0.000611415	0.0941235	265.836
386.0000	-1.0829	0.000616	0.0948988	265.879
385.5000	-1.0992	0.000596355	0.0956443	265.915
385.0000	-0.885372	0.000605862	0.096496	265.954
384.5000	-0.844515	0.000600061	0.0973252	265.99
384.0000	-1.09378	0.000603755	0.0983563	266.032
383.5000	-1.0528	0.000611095	0.0992476	266.084
383.0000	-0.827794	0.000609054	0.0998402	266.122
382.5000	-0.724021	0.000608287	0.100558	266.165
382.0000	-0.691895	0.000605715	0.101835	266.218
381.5000	-0.693931	0.000595844	0.103114	266.26
381.0000	-0.660994	0.000610821	0.104337	266.326
380.5000	-0.536514	0.000606016	0.105164	266.373
380.0000	-0.540643	0.000615847	0.106303	266.427
379.5000	-0.498038	0.000628847	0.107503	266.483
379.0000	-0.661116	0.00061645	0.108349	266.539
378.5000	-0.587278	0.000613529	0.108853	266.593
378.0000	-0.522581	0.000619127	0.109361	266.643
377.5000	-0.457875	0.000607417	0.110127	266.7
377.0000	-0.343909	0.000635102	0.11073	266.745
376.5000	-0.350506	0.000634252	0.111499	266.781
376.0000	-0.321568	0.000630386	0.112109	266.797
375.5000	-0.198135	0.000630811	0.112416	266.803
375.0000	-0.13432	0.000633335	0.112854	266.812
374.5000	-0.364976	0.000626109	0.113467	266.828
374.0000	-0.31038	0.000631681	0.113982	266.833
373.5000	-0.263827	0.000633398	0.114311	266.83
373.0000	-0.316192	0.000617899	0.114373	266.824
372.5000	-0.283084	0.000616487	0.114512	266.816
372.0000	-0.295289	0.00061448	0.114756	266.812
371.5000	-0.36443	0.000613746	0.114804	266.8
371.0000	-0.4555	0.000590833	0.115172	266.8
370.5000	-0.384047	0.000607187	0.115663	266.806
370.0000	-0.418619	0.000611475	0.116053	266.817
369.5000	-0.573505	0.000602202	0.116382	266.828
369.0000	-0.444566	0.000613987	0.116765	266.847
368.5000	-0.565529	0.000600237	0.11732	266.874
368.0000	-0.704963	0.000590275	0.117792	266.919
367.5000	-0.779195	0.00059889	0.118587	266.986
367.0000	-0.638941	0.000585516	0.119449	267.044
366.5000	-0.490485	0.000585833	0.120064	267.109
366.0000	-0.520914	0.000583975	0.120744	267.19
365.5000	-0.623639	0.000581009	0.121375	267.269
365.0000	-0.514034	0.000580226	0.121827	267.344
364.5000	-0.50979	0.000580718	0.122535	267.42
364.0000	-0.51128	0.000579804	0.123074	267.5
363.5000	-0.441696	0.000572307	0.123931	267.579
363.0000	-0.337301	0.000565319	0.124892	267.672
362.5000	-0.236522	0.00056757	0.125588	267.754
362.0000	-0.0934326	0.000559329	0.126198	267.832
361.5000	0.0502957	0.000572463	0.127113	267.92
361.0000	0.0056768	0.000578102	0.127827	267.993
360.5000	-0.0586248	0.000582443	0.128381	268.072
360.0000	0.109545	0.000586451	0.128885	268.137
359.5000	0.276055	0.000586354	0.129386	268.21
359.0000	0.297633	0.000581729	0.129654	268.282
358.5000	0.296556	0.000602283	0.12968	268.343
358.0000	0.0710051	0.000597891	0.129737	268.404
357.5000	0.0808733	0.000596123	0.129748	268.463
357.0000	0.143484	0.000596226	0.129986	268.519
356.5000	0.380836	0.000606431	0.130607	268.58
356.0000	0.461018	0.000598447	0.130714	268.628
355.5000	0.498739	0.000595654	0.131004	268.694
355.0000	0.691673	0.000597317	0.130986	268.743
354.5000	0.660901	0.000607485	0.131015	268.798
354.0000	0.583288	0.000608318	0.13125	268.862
353.5000	0.62274	0.000615419	0.131563	268.931
353.0000	0.603307	0.000607792	0.131653	268.989
352.5000	0.642181	0.000607734	0.131924	269.06
352.0000	0.895876	0.00059001	0.132162	269.128
351.5000	1.03752	0.000594073	0.132394	269.191
351.0000	1.05544	0.000591225	0.133023	269.26
350.5000	1.09446	0.000584877	0.133574	269.312
350.0000	1.05621	0.000575698	0.134364	269.382
349.5000	1.24346	0.000574233	0.1352	269.448
349.0000	1.26071	0.000575281	0.13612	269.514
348.5000	1.37618	0.000580626	0.137233	269.589
348.0000	1.22359	0.000580739	0.137981	269.655
347.5000	1.03596	0.000580559	0.139086	269.728
347.0000	1.03362	0.000581069	0.140159	269.794
346.5000	0.925267	0.000580082	0.14113	269.869
346.0000	0.923374	0.00057038	0.141846	269.928
345.5000	1.02053	0.000559697	0.14279	269.992
345.0000	1.0882	0.00055345	0.143689	270.05
344.5000	1.09529	0.000548122	0.144671	270.113
344.0000	1.05889	0.000539205	0.145845	270.177
343.5000	0.88761	0.000538781	0.146757	270.242
343.0000	0.848671	0.00052475	0.147448	270.296
342.5000	0.846452	0.000528645	0.148091	270.359
342.0000	0.866644	0.00052342	0.148695	270.422
341.5000	0.934031	0.00052922	0.149489	270.492
341.0000	0.955129	0.000518985	0.150235	270.541
340.5000	1.12144	0.000514723	0.150886	270.605
340.0000	1.13391	0.000506777	0.151552	270.673
339.5000	1.19067	0.000495141	0.151889	270.736
339.0000	1.32537	0.000491883	0.152683	270.814
338.5000	1.42828	0.000484284	0.153514	270.888
338.0000	1.45938	0.00049243	0.154296	270.964
337.5000	1.51208	0.00050415	0.155145	271.053
337.0000	1.61305	0.000501297	0.155788	271.133
336.5000	1.61493	0.000494907	0.156674	271.216
336.0000	1.82971	0.000496112	0.15747	271.302
335.5000	1.95148	0.000503445	0.158298	271.39
335.0000	1.87397	0.000496276	0.159057	271.473
334.5000	2.01445	0.00048696	0.159856	271.567
334.0000	1.98722	0.000475127	0.160868	271.669
333.5000	1.9559	0.000465194	0.162351	271.782
333.0000	1.8119	0.000469115	0.163344	271.882
332.5000	1.77744	0.000456829	0.16419	271.996
332.0000	1.77037	0.000463574	0.164929	272.093
331.5000	1.76574	0.000463791	0.16597	272.198
331.0000	1.77134	0.000466034	0.167222	272.317
330.5000	1.75228	0.000472796	0.16809	272.423
330.0000	1.5772	0.000462439	0.169085	272.532
329.5000	1.55592	0.000454663	0.169996	272.634
329.0000	1.59732	0.000429739	0.170861	272.742
328.5000	1.55761	0.000434269	0.17188	272.851
328.0000	1.5414	0.000431189	0.172741	272.957
327.5000	1.30863	0.000423793	0.173807	273.063
327.0000	1.18739	0.000407549	0.174973	273.155
326.5000	1.16369	0.000414284	0.17649	273.275
326.0000	0.934267	0.000417279	0.178111	273.402
325.5000	0.862676	0.000418128	0.179588	273.536
325.0000	0.875492	0.000430508	0.180661	273.664
324.5000	1.10535	0.000423792	0.181997	273.802
324.0000	1.13739	0.0004261	0.183657	273.953
323.5000	1.02515	0.000414754	0.185424	274.103
323.0000	0.924419	0.000410033	0.18692	274.253
322.5000	0.833355	0.000394975	0.188555	274.419
322.0000	0.789966	0.000392302	0.189947	274.576
321.5000	0.899786	0.000396559	0.191741	274.747
321.0000	0.929512	0.000390451	0.193622	274.923
320.5000	1.00766	0.000406173	0.195513	275.094
320.0000	0.840569	0.000401207	0.197153	275.257
319.5000	0.927004	0.000402384	0.198824	275.422
319.0000	0.941474	0.000417255	0.200521	275.614
318.5000	0.891333	0.00041266	0.202273	275.82
318.0000	1.03091	0.000405933	0.203684	275.99
317.5000	1.26076	0.000406547	0.205149	276.146
317.0000	1.22921	0.000396585	0.206888	276.301
316.5000	1.10826	0.000382037	0.2088	276.457
316.0000	0.932242	0.000367325	0.210937	276.636
315.5000	0.819036	0.000364668	0.212679	276.813
315.0000	0.871503	0.000367148	0.214475	277.006
314.5000	0.843562	0.00036307	0.2162	277.193
314.0000	0.918704	0.000375974	0.218047	277.381
313.5000	0.918616	0.000365834	0.220062	277.581
313.0000	1.10413	0.000368526	0.222237	277.805
312.5000	1.02899	0.000361793	0.224135	278.016
312.0000	0.940024	0.000365422	0.226409	278.243
311.5000	0.849792	0.000359342	0.228633	278.477
311.0000	0.832622	0.000353564	0.231132	278.714
310.5000	0.913201	0.00034208	0.233573	278.985
310.0000	0.740628	0.000346242	0.236143	279.248
309.5000	0.765921	0.00034871	0.238913	279.526
309.0000	0.847566	0.000335714	0.242228	279.86
308.5000	0.808858	0.000337554	0.245343	280.206
308.0000	0.874682	0.000334365	0.248337	280.535
307.5000	0.870011	0.000345676	0.251892	280.91
307.0000	1.04073	0.000344544	0.255597	281.278
306.5000	1.03686	0.000340844	0.259818	281.695
306.0000	1.255	0.000339241	0.264225	282.116
305.5000	0.994409	0.000339536	0.268803	282.581
305.0000	0.95441	0.00033172	0.273513	283.048
304.5000	0.668429	0.000333196	0.279004	283.572
304.0000	0.755944	0.000336078	0.285171	284.152
303.5000	0.567527	0.000324588	0.291315	284.731
303.0000	0.612163	0.000332564	0.298041	285.388
302.5000	0.470501	0.000333439	0.305244	286.095
302.0000	0.450737	0.000336046	0.31281	286.818
301.5000	0.30929	0.000339297	0.320945	287.592
301.0000	0.476417	0.000345147	0.329105	288.39
300.5000	0.351218	0.000354687	0.336447	289.113
300.0000	0.319962	0.000357559	0.345557	289.978
299.5000	0.371961	0.000345772	0.354446	290.835
299.0000	0.35979	0.000343774	0.363094	291.685
298.5000	0.201167	0.0003404	0.372112	292.584
298.0000	0.140393	0.000318271	0.380727	293.435
297.5000	0.0502391	0.000313773	0.389645	294.312
297.0000	-0.047828	0.000305421	0.397919	295.085
296.5000	-0.190654	0.000298952	0.405789	295.84
296.0000	-0.249931	0.000289162	0.413531	296.59
295.5000	-0.374936	0.000290244	0.421227	297.309
295.0000	-0.359058	0.000292155	0.428433	297.966
294.5000	-0.572826	0.000279623	0.435404	298.614
294.0000	-0.734077	0.000265223	0.442033	299.273
293.5000	-0.654118	0.000261428	0.447244	299.81
293.0000	-0.868488	0.0002562	0.452715	300.366
292.5000	-0.885592	0.000253417	0.457839	300.911
292.0000	-0.99628	0.000259336	0.462378	301.411
291.5000	-1.13343	0.000247497	0.466854	301.893
291.0000	-1.18953	0.000246679	0.471049	302.346
290.5000	-1.3509	0.000240223	0.475291	302.799
290.0000	-1.45091	0.000249087	0.479426	303.222
289.5000	-1.68219	0.000269004	0.482873	303.608
289.0000	-1.84568	0.000283311	0.48632	303.999
288.5000	-1.89523	0.000287866	0.490056	304.432
288.0000	-2.0132	0.000288124	0.493492	304.84
287.5000	-1.95689	0.000315573	0.497025	305.268
287.0000	-1.97279	0.000318523	0.500504	305.733
286.5000	-1.98846	0.000322371	0.503646	306.186
286.0000	-2.13406	0.000347527	0.506875	306.61
285.5000	-2.44757	0.000366201	0.510532	307.027
285.0000	-2.56284	0.000379312	0.514409	307.47
284.5000	-2.77064	0.000384959	0.518053	307.892
284.0000	-2.90987	0.000385446	0.521958	308.34
283.5000	-2.96912	0.000397609	0.526148	308.803
283.0000	-3.21787	0.000397296	0.530276	309.265
282.5000	-3.64769	0.000426337	0.534751	309.76
282.0000	-3.76974	0.000451056	0.539172	310.283
281.5000	-3.92363	0.000462964	0.543449	310.794
281.0000	-4.08804	0.000456086	0.548124	311.326
280.5000	-4.24824	0.000465207	0.553106	311.914
280.0000	-4.35385	0.000477104	0.558418	312.532
279.5000	-4.7018	0.000493602	0.564273	313.215
279.0000	-4.86652	0.000502708	0.569859	313.88
278.5000	-5.25531	0.000518295	0.576351	314.633
278.0000	-5.46597	0.000525844	0.583942	315.458
277.5000	-5.55926	0.0005348	0.591305	316.259
277.0000	-5.50916	0.000561064	0.59929	317.156
276.5000	-5.56066	0.000580161	0.607624	318.104
276.0000	-5.66032	0.000586598	0.615794	319.023
275.5000	-5.81182	0.000577419	0.625704	320.104
275.0000	-6.10159	0.000577166	0.63613	321.246
274.5000	-6.15238	0.000606496	0.64691	322.451
274.0000	-6.15345	0.000611686	0.658864	323.813
273.5000	-6.3105	0.000610986	0.670682	325.124
273.0000	-6.31069	0.000622007	0.684058	326.602
272.5000	-6.56755	0.000633364	0.698117	328.167
272.0000	-6.74921	0.00063151	0.713024	329.843
271.5000	-7.03175	0.000631541	0.729525	331.703
271.0000	-7.16791	0.000610347	0.746387	333.574
270.5000	-7.57114	0.000620329	0.764397	335.559
270.0000	-7.61714	0.000616963	0.783004	337.654
269.5000	-8.20101	0.000618882	0.80253	339.894
269.0000	-8.44267	0.000631065	0.822193	342.143
268.5000	-8.82865	0.000637858	0.844258	344.662
268.0000	-9.54171	0.000627922	0.867464	347.312
267.5000	-10.3216	0.000638833	0.891852	350.118
267.0000	-11.0292	0.000642096	0.918442	353.23
266.5000	-11.752	0.000643175	0.946072	356.504
266.0000	-12.3392	0.000618635	0.972304	359.581
265.5000	-12.9792	0.000609856	1.0009	362.928
265.0000	-13.6181	0.000607209	1.03138	366.567
264.5000	-14.3623	0.000603354	1.06061	370.114
264.0000	-14.7841	0.000612195	1.09015	373.727
263.5000	-15.2504	0.000605406	1.12129	377.539
263.0000	-15.6016	0.000612048	1.14934	381.006
262.5000	-15.7565	0.000616289	1.17973	384.841
262.0000	-15.8932	0.000598543	1.20806	388.496
261.5000	-16.2109	0.000591482	1.23634	392.144
261.0000	-16.1481	0.000577961	1.26323	395.592
260.5000	-16.5908	0.000592935	1.29105	399.211
260.0000	-16.5052	0.000552127	1.31843	402.825
259.5000	-16.9168	0.000513025	1.34536	406.429
259.0000	-16.8936	0.000523687	1.37174	410.023
258.5000	-16.8745	0.000529595	1.39817	413.613
258.0000	-16.3293	0.000501614	1.42456	417.224
257.5000	-16.28	0.000529858	1.44964	420.681
257.0000	-16.0819	0.000562002	1.47602	424.348
256.5000	-15.7016	0.000578643	1.50113	427.857
256.0000	-16.2202	0.000542454	1.52779	431.586
255.5000	-16.3839	0.000534341	1.55478	435.369
255.0000	-16.0867	0.000548156	1.58203	439.228
254.5000	-16.3782	0.000561643	1.60806	442.942
254.0000	-16.8397	0.000582953	1.63417	446.685
253.5000	-17.0558	0.000515612	1.66341	450.84
253.0000	-17.4657	0.00058869	1.68947	454.601
252.5000	-18.12	0.000509227	1.72735	460.175
252.0000	-18.468	0.00046706	1.75789	464.696
251.5000	-18.7207	0.000501059	1.78379	468.544
251.0000	-18.9952	0.000440474	1.80927	472.31
250.5000	-18.9977	0.000452504	1.83371	475.983
250.0000	-19.9295	0.000433925	1.85581	479.355
249.5000	-20.8901	0.000373294	1.87712	482.64
249.0000	-20.0533	0.000395694	1.89865	485.979
248.5000	-20.8551	0.000268091	1.91849	489.048
248.0000	-20.8691	0.000251554	1.93842	492.166
247.5000	-20.1975	0.000271804	1.95655	495.048
247.0000	-19.9561	0.00019145	1.97491	498.007
246.5000	-20.5063	6.57534E-005	1.99307	500.924
246.0000	-21.1825	8.88414E-007	2.0111	503.808
245.5000	-21.0482	1.89538E-005	2.0296	506.852
245.0000	-21.0952	-0.000100218	2.04824	509.931
244.5000	-19.8236	2.96203E-005	2.06702	513.036
244.0000	-20.1222	-3.13576E-005	2.08597	516.211
243.5000	-19.9714	-6.35659E-005	2.10454	519.359
243.0000	-18.329	-7.34773E-005	2.12387	522.683
242.5000	-17.1182	-8.47928E-006	2.1463	526.567
242.0000	-16.6234	-0.0001179	2.1669	530.149
241.5000	-16.3055	-0.00019127	2.1911	534.373
241.0000	-17.189	-0.000274357	2.21455	538.482
240.5000	-16.9072	-0.000252617	2.24201	543.389
240.0000	-15.6634	-9.8803E-005	2.26892	548.21
239.5000	-15.8653	-0.000285513	2.30266	554.28
239.0000	-15.825	-0.000216627	2.33441	559.99
238.5000	-15.6298	-0.000138932	2.3702	566.478
238.0000	-14.746	-3.37449E-005	2.41034	573.869
237.5000	-15.4774	3.56153E-005	2.44895	581.064
237.0000	-17.9486	-0.000146517	2.4923	589.21
236.5000	-18.4671	-0.000280756	2.5384	597.956
236.0000	-18.0149	-0.000419971	2.58464	606.807
235.5000	-15.7604	-0.000102248	2.64072	617.718
235.0000	-15.8054	-6.70837E-005	2.68063	625.582
234.5000	-17.3878	5.98468E-005	2.72464	634.326
234.0000	-18.1367	-5.12539E-005	2.77308	644.042
233.5000	-16.6364	0.000112639	2.82877	655.326
233.0000	-13.3425	0.000158936	2.88863	667.65
232.5000	-13.2816	0.000219317	2.94678	679.864
232.0000	-12.5758	0.000376547	3.01467	694.425
231.5000	-12.9032	0.000419953	3.07024	706.613
231.0000	-14.9205	0.000522308	3.13152	720.315
230.5000	-14.3169	0.000400656	3.19148	734.078
230.0000	-15.3839	0.000642666	3.24629	747.024
229.5000	-16.7878	0.000433145	3.30178	760.42
229.0000	-12.6824	0.000429544	3.35449	773.494
228.5000	-10.8802	0.000609033	3.40403	786.074
228.0000	-8.46856	0.000696662	3.44804	797.56
227.5000	-8.24038	0.000891824	3.48999	808.975
227.0000	-5.26585	0.00083675	3.52792	819.672
226.5000	-7.85424	0.000754272	3.56337	830.075
226.0000	-6.76134	0.00056718	3.5912	838.699
225.5000	-2.79957	0.000743998	3.61624	846.951
225.0000	-4.49772	0.000678208	3.63668	854.362
224.5000	-4.40417	0.000873886	3.65273	860.885
224.0000	-6.04382	0.000729016	3.66482	866.517
223.5000	-8.20072	0.000632456	3.67343	871.306
223.0000	-5.87438	0.000470282	3.67857	875.264
222.5000	-4.28662	0.000330977	3.68016	879.071
222.0000	-8.05566	0.000424627	3.67824	881.785
221.5000	-2.87542	0.000445217	3.67334	883.971
221.0000	-5.04711	0.000624875	3.66701	885.345
220.5000	-2.82225	0.000566301	3.65976	886.529
220.0000	-4.30971	0.000499875	3.6505	887.405

##### Extended Information
[Comments]
Sample name	JS187+JS190_5E-5_H2O_80-20
Comment
User
Division
Company	Labo systeme complexes hors equilibre

[Detailed Information]
Creation date	1/23/2024 12:04 PM

Data array type	Linear data array * 4
Horizontal axis	Wavelength [nm]
Vertical axis(1)	CD [mdeg]
Vertical axis(2)	LD [dOD]
Vertical axis(3)	Abs
Vertical axis(4)	HT [V]
Start	700 nm
End	220 nm
Data interval	0.5 nm
Data points	961     

[Measurement Information]
Instrument name	CD Jasco
Model name	J-1500
Serial No.	A005261638

Detector	PM-539
Detector S/N	A0052PM539
  Lock-in amp.	X mode
  HT volt	Auto

Detector	EXPML-535
Detector S/N	A0001
  Lock-in amp.	X mode
  HT volt	Auto

Measurement date	1/23/2024 12:04 PM

Overload detect	1
Photometric mode	CD, LD, Abs, HT
Measure range	700 - 220 nm
Data pitch	0.5 nm
CD scale	200 mdeg/1.0 dOD
FL scale	200 mdeg/1.0 dOD
D.I.T.	1 sec
Bandwidth	1.00 nm
Start mode	Immediately
Scanning speed	500 nm/min
Baseline correction	Baseline
Shutter control	Auto


