TITLE	JS187+JS190_5E-5_H2O_10-90
DATA TYPE	
ORIGIN	JASCO
OWNER	
DATE	24/01/23
TIME	11:37:59
SPECTROMETER/DATA SYSTEM	
LOCALE	1033
RESOLUTION	
DELTAX	-0.5
XUNITS	NANOMETERS
YUNITS	CD [mdeg]
Y2UNITS	LD [dOD]
Y3UNITS	ABSORBANCE
Y4UNITS	HT [V]
FIRSTX	  700.0000
LASTX	  220.0000
NPOINTS	     961
FIRSTY	     1.88517
MAXY	    31.44359
MINY	   -35.81037
XYDATA
700.0000	1.88517	0.000123142	-0.0600219	298.648
699.5000	1.6948	0.000136312	-0.0611554	298.339
699.0000	1.82772	0.000149157	-0.0624014	297.976
698.5000	1.92661	0.000165915	-0.0632149	297.57
698.0000	1.83	0.00014068	-0.0646044	297.11
697.5000	1.70289	0.000154355	-0.0664555	296.633
697.0000	1.73884	0.000183567	-0.0684781	296.122
696.5000	1.7014	0.00017796	-0.069801	295.595
696.0000	1.67003	0.000180505	-0.0701779	295.041
695.5000	1.69817	0.000183465	-0.0702316	294.519
695.0000	1.88439	0.000169933	-0.0695837	294.064
694.5000	1.67757	0.000178006	-0.0688064	293.641
694.0000	1.7599	0.000180565	-0.0669133	293.246
693.5000	1.8674	0.000186904	-0.0645577	292.899
693.0000	1.8706	0.000180755	-0.0615377	292.611
692.5000	1.77249	0.000164132	-0.0585561	292.344
692.0000	1.65906	0.000166589	-0.055692	292.104
691.5000	1.59669	0.000150244	-0.0526645	291.89
691.0000	1.60785	0.000147574	-0.0497778	291.681
690.5000	1.50118	0.000139479	-0.0478029	291.491
690.0000	1.49781	0.000139234	-0.0459654	291.334
689.5000	1.10902	0.000135482	-0.0435648	291.253
689.0000	1.00954	0.00012121	-0.0401463	291.249
688.5000	1.06147	0.000126119	-0.0363485	291.359
688.0000	0.853862	0.000131852	-0.032013	291.545
687.5000	0.880447	0.000132523	-0.0275589	291.79
687.0000	0.524653	0.000145438	-0.023872	292.041
686.5000	0.561604	0.000132783	-0.0211984	292.288
686.0000	0.638104	0.000128771	-0.0200227	292.527
685.5000	0.73611	0.000133648	-0.0199725	292.763
685.0000	0.270199	0.0001113	-0.0203974	292.99
684.5000	0.122852	0.000121561	-0.0213924	293.207
684.0000	0.29379	0.00011851	-0.0228973	293.414
683.5000	0.205579	0.000124099	-0.0238153	293.637
683.0000	0.281855	0.000132129	-0.0245168	293.894
682.5000	0.239052	0.000139184	-0.0246308	294.16
682.0000	0.732776	0.000144827	-0.0246866	294.47
681.5000	0.990715	0.00014148	-0.0245413	294.751
681.0000	1.04038	0.000146157	-0.0249321	294.995
680.5000	1.41627	0.000149453	-0.0258773	295.164
680.0000	1.43583	0.000132843	-0.028181	295.274
679.5000	1.45992	0.000131268	-0.0311252	295.318
679.0000	1.39825	0.000126876	-0.0349761	295.323
678.5000	1.45991	0.000117278	-0.0376413	295.305
678.0000	1.68942	0.000138825	-0.0399002	295.286
677.5000	1.6859	0.000142201	-0.0412152	295.265
677.0000	1.60053	0.000169195	-0.0418085	295.241
676.5000	1.93885	0.0001585	-0.04161	295.22
676.0000	1.82308	0.000153775	-0.0411454	295.221
675.5000	1.83723	0.000146151	-0.0407389	295.216
675.0000	1.62734	0.000145456	-0.0401534	295.214
674.5000	1.44055	0.000139184	-0.0393037	295.206
674.0000	1.26926	0.000157254	-0.0381747	295.227
673.5000	1.26858	0.000166299	-0.0369516	295.257
673.0000	1.15401	0.000181892	-0.0366526	295.294
672.5000	1.08607	0.000174212	-0.0363624	295.34
672.0000	1.04552	0.000184939	-0.0357061	295.398
671.5000	0.985839	0.000211289	-0.0346362	295.452
671.0000	0.841724	0.000191539	-0.0333718	295.527
670.5000	0.87176	0.000193277	-0.0319246	295.601
670.0000	0.816266	0.000210243	-0.0308174	295.667
669.5000	0.971535	0.00020855	-0.0301899	295.741
669.0000	1.30661	0.000205143	-0.0295453	295.814
668.5000	1.39774	0.000188201	-0.0289165	295.89
668.0000	1.23497	0.000176858	-0.028266	296
667.5000	1.40659	0.000195056	-0.0278649	296.103
667.0000	1.22841	0.000199382	-0.0277458	296.206
666.5000	1.35923	0.000196278	-0.0274055	296.329
666.0000	1.17901	0.000193474	-0.0280056	296.439
665.5000	0.998509	0.000158491	-0.0280394	296.562
665.0000	1.23172	0.000147355	-0.027312	296.682
664.5000	1.26545	0.000148422	-0.0262704	296.802
664.0000	1.28627	0.000149223	-0.0261522	296.9
663.5000	1.31428	0.000150607	-0.0270837	296.992
663.0000	1.53447	0.000144843	-0.0273483	297.067
662.5000	1.38661	0.000168809	-0.0277869	297.13
662.0000	1.19099	0.000140497	-0.0282252	297.189
661.5000	0.957629	0.000132577	-0.0281143	297.238
661.0000	0.686185	0.00013123	-0.0283256	297.282
660.5000	0.640394	0.000134717	-0.028878	297.302
660.0000	0.93413	0.000149849	-0.0291895	297.31
659.5000	0.838305	0.00015021	-0.0300004	297.304
659.0000	1.01053	0.000153227	-0.0307127	297.27
658.5000	0.921428	0.000134258	-0.0312194	297.223
658.0000	0.843828	0.000144718	-0.0313749	297.158
657.5000	1.21137	0.000161018	-0.0323121	297.054
657.0000	0.840328	0.000171062	-0.0322389	296.942
656.5000	0.846623	0.000177199	-0.0334488	296.793
656.0000	0.8846	0.000182575	-0.0345131	296.634
655.5000	1.09516	0.000166064	-0.0340923	296.465
655.0000	0.857286	0.000172579	-0.0341199	296.304
654.5000	0.86715	0.000167343	-0.0345013	296.159
654.0000	0.817197	0.000173322	-0.0341582	296.006
653.5000	0.905438	0.000180036	-0.0330457	295.867
653.0000	0.876881	0.000188392	-0.0315304	295.746
652.5000	0.719569	0.000212791	-0.0298383	295.668
652.0000	0.956802	0.000213042	-0.0279656	295.615
651.5000	0.808651	0.000229169	-0.0256051	295.591
651.0000	0.721523	0.000213871	-0.0227101	295.601
650.5000	0.532215	0.000225637	-0.0204537	295.646
650.0000	0.903509	0.000229872	-0.0178415	295.71
649.5000	0.719791	0.000239447	-0.0156644	295.807
649.0000	0.709538	0.000231775	-0.0133438	295.917
648.5000	0.979689	0.000220228	-0.0120657	296.038
648.0000	1.13137	0.000224232	-0.0103257	296.193
647.5000	0.903193	0.000232874	-0.00871686	296.362
647.0000	0.930014	0.000251366	-0.00761644	296.555
646.5000	1.05451	0.000251516	-0.00682447	296.739
646.0000	1.17435	0.000251045	-0.00536106	296.905
645.5000	1.21176	0.000254012	-0.0047553	297.063
645.0000	1.1827	0.000251338	-0.00539913	297.199
644.5000	1.40098	0.00024774	-0.00584512	297.306
644.0000	1.30449	0.000245964	-0.0061018	297.393
643.5000	1.16552	0.000244936	-0.00679313	297.453
643.0000	1.37055	0.000244009	-0.00767545	297.465
642.5000	1.61227	0.000250781	-0.00823482	297.48
642.0000	1.74825	0.000280178	-0.00879609	297.458
641.5000	1.84384	0.000274592	-0.00939403	297.425
641.0000	1.81416	0.000262704	-0.00976291	297.368
640.5000	1.81045	0.000282867	-0.0094567	297.323
640.0000	1.61985	0.000279741	-0.00895287	297.264
639.5000	1.58723	0.000265163	-0.00830262	297.177
639.0000	1.60442	0.000278567	-0.0078627	297.086
638.5000	1.70619	0.000240934	-0.00696275	296.985
638.0000	1.66553	0.000255365	-0.00660473	296.886
637.5000	1.66543	0.000270466	-0.00648631	296.783
637.0000	1.72813	0.000271949	-0.0053876	296.688
636.5000	1.78658	0.000260005	-0.00442981	296.607
636.0000	1.98871	0.000255949	-0.00410331	296.535
635.5000	2.15835	0.000259379	-0.0037483	296.456
635.0000	2.06786	0.000268917	-0.0027326	296.404
634.5000	1.882	0.000244938	-0.0021247	296.328
634.0000	1.6041	0.00024269	-0.00141842	296.272
633.5000	1.69024	0.000239844	-0.00101938	296.225
633.0000	1.85796	0.000252229	-0.00024543	296.168
632.5000	1.90732	0.000249709	-3.076E-005	296.118
632.0000	1.95458	0.000259409	-4.17663E-005	296.048
631.5000	2.06542	0.000261032	0.000639797	296.015
631.0000	2.21671	0.000283838	0.00101112	295.958
630.5000	2.10411	0.00028027	0.00130852	295.896
630.0000	2.06979	0.000310077	0.00162094	295.828
629.5000	2.18062	0.00030889	0.00208873	295.76
629.0000	2.14241	0.000317338	0.00235777	295.697
628.5000	2.14577	0.00029906	0.00233746	295.626
628.0000	2.03696	0.000309339	0.00248355	295.544
627.5000	1.91563	0.000318705	0.00300151	295.464
627.0000	1.62936	0.000298431	0.00302256	295.387
626.5000	1.94903	0.000307177	0.0027976	295.316
626.0000	2.12392	0.000320194	0.00266035	295.245
625.5000	2.00354	0.00032282	0.00317967	295.176
625.0000	1.85644	0.000314092	0.00397302	295.128
624.5000	1.7785	0.00029859	0.00473748	295.079
624.0000	1.86273	0.000311562	0.0055455	295.054
623.5000	1.7645	0.000310044	0.00646303	295.045
623.0000	1.59566	0.00029159	0.00722912	295.036
622.5000	1.76389	0.000292089	0.00824698	295.049
622.0000	1.75331	0.000295843	0.00906516	295.078
621.5000	1.75586	0.000298414	0.00999535	295.125
621.0000	1.88335	0.000299555	0.0109031	295.174
620.5000	1.9605	0.000291795	0.0114245	295.223
620.0000	1.88159	0.000305568	0.011956	295.295
619.5000	1.92451	0.000317814	0.0128791	295.394
619.0000	1.94998	0.000292159	0.0140618	295.492
618.5000	2.21221	0.000306227	0.0156731	295.606
618.0000	1.87984	0.000303809	0.0172747	295.72
617.5000	2.13062	0.000298909	0.018029	295.857
617.0000	1.8417	0.000320457	0.0183945	295.989
616.5000	2.01816	0.000336512	0.0189632	296.135
616.0000	2.20061	0.000350605	0.0196273	296.248
615.5000	2.20844	0.000332628	0.0198174	296.353
615.0000	2.54576	0.000336328	0.0200015	296.467
614.5000	2.65829	0.000330737	0.020128	296.592
614.0000	2.54583	0.000327157	0.0202713	296.715
613.5000	2.58947	0.000312499	0.0206338	296.837
613.0000	2.36084	0.000321408	0.0207762	296.954
612.5000	2.33521	0.000333046	0.0210909	297.078
612.0000	2.54468	0.000346893	0.0214735	297.197
611.5000	2.66466	0.000357432	0.0219909	297.299
611.0000	2.56208	0.000360002	0.022188	297.42
610.5000	2.77917	0.00035755	0.022198	297.531
610.0000	2.77206	0.000349983	0.0219786	297.626
609.5000	2.78452	0.000339999	0.0222793	297.711
609.0000	2.65009	0.000326464	0.0225761	297.791
608.5000	2.79904	0.000317311	0.0232834	297.875
608.0000	2.73495	0.000335624	0.023556	297.948
607.5000	2.50183	0.000326662	0.0235796	298.036
607.0000	2.56731	0.000339223	0.0239089	298.119
606.5000	2.41386	0.000354635	0.0243718	298.201
606.0000	2.37787	0.000358695	0.0252919	298.261
605.5000	2.32596	0.000360916	0.0260233	298.331
605.0000	2.55299	0.000368344	0.0270314	298.395
604.5000	2.57874	0.00036151	0.027836	298.46
604.0000	2.14214	0.000357546	0.0289082	298.523
603.5000	2.26592	0.000344819	0.0300797	298.58
603.0000	2.33766	0.00033922	0.0308242	298.635
602.5000	2.19923	0.000337728	0.0319889	298.685
602.0000	2.37041	0.000338784	0.0334164	298.742
601.5000	2.3201	0.000353049	0.0347725	298.805
601.0000	2.46785	0.000357249	0.036159	298.871
600.5000	2.61969	0.000379344	0.0379967	298.927
600.0000	2.60165	0.000365937	0.0393187	298.958
599.5000	2.57389	0.000380511	0.0415945	298.995
599.0000	2.502	0.000386517	0.0434281	299.024
598.5000	2.4218	0.000385813	0.0458375	299.05
598.0000	2.54083	0.000396304	0.04782	299.075
597.5000	2.51528	0.000396919	0.0497583	299.114
597.0000	2.51166	0.000386941	0.0518674	299.14
596.5000	2.52309	0.000388275	0.0542223	299.165
596.0000	2.6875	0.000407909	0.056508	299.178
595.5000	2.48373	0.000385127	0.0586448	299.192
595.0000	2.21332	0.000383031	0.0611678	299.205
594.5000	2.41281	0.000391333	0.0638968	299.237
594.0000	2.49806	0.000423384	0.0661265	299.273
593.5000	2.38511	0.000420867	0.0687427	299.292
593.0000	2.24132	0.000422899	0.0719377	299.334
592.5000	2.21457	0.000421213	0.0746543	299.396
592.0000	2.09748	0.000440096	0.0775007	299.492
591.5000	1.83502	0.000430022	0.0798054	299.565
591.0000	1.91171	0.000435649	0.0828895	299.667
590.5000	1.92326	0.000430611	0.0858574	299.8
590.0000	1.82413	0.000416704	0.0890497	299.944
589.5000	1.72377	0.000416699	0.0924163	300.09
589.0000	1.55882	0.00042382	0.0958625	300.248
588.5000	1.36539	0.000420754	0.0993392	300.434
588.0000	1.29549	0.000427192	0.103428	300.664
587.5000	1.28438	0.000439588	0.107623	300.918
587.0000	1.33654	0.000444609	0.111847	301.213
586.5000	1.02352	0.000429421	0.115749	301.484
586.0000	0.570096	0.000422923	0.120436	301.782
585.5000	0.512968	0.000413035	0.124961	302.116
585.0000	0.470525	0.000410946	0.129399	302.457
584.5000	0.30026	0.000415349	0.133711	302.788
584.0000	0.0945221	0.000416441	0.13883	303.171
583.5000	-0.302829	0.000393086	0.144221	303.579
583.0000	-0.693742	0.000384088	0.150428	304.043
582.5000	-0.907697	0.000387674	0.156289	304.514
582.0000	-1.30627	0.000398801	0.162376	305.004
581.5000	-1.67846	0.00042382	0.168925	305.543
581.0000	-2.15529	0.000410488	0.176094	306.117
580.5000	-2.63165	0.00041956	0.183382	306.71
580.0000	-3.10058	0.00041385	0.190568	307.312
579.5000	-3.63102	0.000407293	0.197944	307.948
579.0000	-4.22827	0.000412344	0.205663	308.607
578.5000	-4.8925	0.000417962	0.214075	309.293
578.0000	-5.42748	0.000423615	0.222677	310.029
577.5000	-6.25815	0.000433694	0.231339	310.829
577.0000	-7.1633	0.00043951	0.240959	311.638
576.5000	-8.08893	0.000450071	0.251663	312.548
576.0000	-8.90751	0.000434791	0.262138	313.444
575.5000	-9.92786	0.000442225	0.273347	314.399
575.0000	-10.5796	0.000465006	0.283532	315.313
574.5000	-11.5525	0.000464309	0.295085	316.332
574.0000	-12.2971	0.000448289	0.30682	317.343
573.5000	-13.2852	0.000440505	0.318756	318.387
573.0000	-14.4481	0.00042971	0.33114	319.526
572.5000	-15.3825	0.000437244	0.343031	320.628
572.0000	-16.4437	0.000424008	0.356415	321.887
571.5000	-17.389	0.000411605	0.36981	323.128
571.0000	-18.541	0.000416258	0.384623	324.456
570.5000	-19.6722	0.000417154	0.399429	325.842
570.0000	-20.7206	0.000418119	0.413781	327.199
569.5000	-21.9464	0.000402172	0.42953	328.639
569.0000	-23.3559	0.000407438	0.445338	330.084
568.5000	-24.3001	0.000397665	0.460004	331.486
568.0000	-25.3613	0.000388019	0.474872	332.942
567.5000	-26.495	0.000378801	0.490065	334.428
567.0000	-27.5685	0.000344219	0.505064	335.86
566.5000	-28.3783	0.00033228	0.519893	337.261
566.0000	-29.4137	0.000336107	0.534459	338.639
565.5000	-30.4462	0.000326771	0.548556	340.009
565.0000	-31.4152	0.000306278	0.562613	341.344
564.5000	-32.3474	0.000332326	0.576474	342.656
564.0000	-33.1171	0.00031846	0.58953	343.858
563.5000	-33.7438	0.000335442	0.601667	345.002
563.0000	-34.5753	0.000344159	0.613852	346.184
562.5000	-34.9192	0.000354873	0.624993	347.237
562.0000	-35.176	0.00034519	0.635529	348.224
561.5000	-35.6002	0.000315524	0.646851	349.244
561.0000	-35.8104	0.000339553	0.657054	350.19
560.5000	-35.5191	0.000342219	0.666567	351.076
560.0000	-35.5373	0.00034334	0.675501	351.873
559.5000	-35.252	0.000365897	0.683859	352.563
559.0000	-35.0034	0.000387226	0.690905	353.139
558.5000	-34.7635	0.000400274	0.696623	353.613
558.0000	-34.2227	0.000393185	0.701402	353.997
557.5000	-33.7926	0.000383379	0.705841	354.31
557.0000	-33.2654	0.000386049	0.709621	354.538
556.5000	-32.8856	0.000363731	0.712279	354.695
556.0000	-31.9653	0.000347165	0.713669	354.772
555.5000	-31.082	0.000331929	0.714676	354.771
555.0000	-29.9363	0.000334596	0.7151	354.686
554.5000	-29.3043	0.00031554	0.715269	354.531
554.0000	-28.3297	0.000315134	0.714333	354.319
553.5000	-27.5715	0.000349261	0.712658	354.027
553.0000	-26.9983	0.000366794	0.710671	353.71
552.5000	-26.6791	0.000344572	0.708859	353.36
552.0000	-25.7157	0.000336724	0.706288	352.922
551.5000	-25.0434	0.000337774	0.703678	352.494
551.0000	-24.4475	0.000316505	0.700366	352.035
550.5000	-23.9647	0.000306343	0.696828	351.536
550.0000	-23.2561	0.000347147	0.693339	351.013
549.5000	-23.0893	0.000350864	0.690049	350.492
549.0000	-22.5316	0.000390026	0.686181	349.974
548.5000	-21.7029	0.000414056	0.68244	349.481
548.0000	-21.288	0.000420391	0.679599	348.959
547.5000	-20.8825	0.000425452	0.67688	348.475
547.0000	-20.6977	0.000452942	0.674417	347.998
546.5000	-20.5799	0.00047319	0.671897	347.581
546.0000	-20.7181	0.000470407	0.668922	347.19
545.5000	-20.6505	0.000493479	0.667331	346.832
545.0000	-20.7845	0.000454481	0.666164	346.569
544.5000	-20.3291	0.000469926	0.665146	346.309
544.0000	-20.2152	0.000475508	0.664125	346.097
543.5000	-20.4032	0.000502809	0.663614	345.926
543.0000	-20.6262	0.00050342	0.663622	345.793
542.5000	-20.8463	0.000502189	0.66429	345.699
542.0000	-21.3833	0.000492901	0.665103	345.657
541.5000	-21.7262	0.00047947	0.666316	345.677
541.0000	-21.9927	0.000470383	0.667709	345.74
540.5000	-22.5354	0.000470957	0.670294	345.853
540.0000	-22.6878	0.000487143	0.673351	346.001
539.5000	-23.3534	0.000483565	0.676479	346.209
539.0000	-24.2313	0.000474678	0.680015	346.498
538.5000	-24.619	0.000432533	0.684059	346.821
538.0000	-24.7922	0.000427458	0.688745	347.167
537.5000	-25.325	0.000409049	0.693823	347.567
537.0000	-25.7894	0.000415676	0.699219	348.024
536.5000	-26.6725	0.000414122	0.705026	348.51
536.0000	-27.2502	0.000379644	0.71158	349.057
535.5000	-27.6999	0.000393144	0.718286	349.631
535.0000	-28.012	0.000409629	0.725672	350.259
534.5000	-28.5021	0.00038231	0.732959	350.891
534.0000	-28.5236	0.000391716	0.740685	351.574
533.5000	-29.3743	0.000381319	0.748632	352.305
533.0000	-29.7046	0.000381422	0.756183	353.006
532.5000	-29.781	0.000356601	0.76405	353.749
532.0000	-30.2788	0.00033939	0.772609	354.553
531.5000	-30.4495	0.000339135	0.781568	355.388
531.0000	-30.6743	0.000351633	0.791412	356.254
530.5000	-30.6871	0.000370533	0.800649	357.098
530.0000	-30.9766	0.000378241	0.810072	357.983
529.5000	-30.8055	0.000376152	0.819277	358.846
529.0000	-30.3968	0.000361564	0.828147	359.644
528.5000	-30.4783	0.0003665	0.836794	360.443
528.0000	-30.4638	0.000349615	0.845039	361.202
527.5000	-30.346	0.000359113	0.853717	361.982
527.0000	-30.2964	0.00035271	0.863041	362.819
526.5000	-29.9902	0.00034226	0.871627	363.616
526.0000	-29.6195	0.000394948	0.880592	364.421
525.5000	-28.9842	0.000403897	0.88931	365.199
525.0000	-28.212	0.000425564	0.897804	365.958
524.5000	-27.5869	0.000446363	0.905687	366.638
524.0000	-26.9252	0.000471921	0.912813	367.241
523.5000	-26.3214	0.000468643	0.919583	367.841
523.0000	-25.2371	0.000499543	0.926058	368.408
522.5000	-24.8783	0.000493565	0.931804	368.926
522.0000	-24.2046	0.000510968	0.937855	369.446
521.5000	-23.5341	0.000529324	0.943919	369.944
521.0000	-23.0741	0.000567916	0.949317	370.389
520.5000	-22.1588	0.000600785	0.954558	370.818
520.0000	-20.9093	0.000622147	0.959073	371.179
519.5000	-19.8326	0.000673735	0.963638	371.514
519.0000	-18.7832	0.000700366	0.96761	371.813
518.5000	-17.9626	0.000706951	0.971052	372.089
518.0000	-17.2187	0.000710114	0.974957	372.378
517.5000	-16.5368	0.000745712	0.978773	372.648
517.0000	-15.6368	0.0007465	0.982414	372.872
516.5000	-15.0477	0.000762142	0.986017	373.089
516.0000	-14.0089	0.00076189	0.989278	373.29
515.5000	-13.8868	0.000758114	0.992067	373.492
515.0000	-13.1467	0.000763096	0.994698	373.664
514.5000	-12.4183	0.000743737	0.997372	373.856
514.0000	-11.666	0.000770129	0.999758	374.005
513.5000	-10.7557	0.000789746	1.00214	374.144
513.0000	-9.92318	0.000804907	1.00423	374.291
512.5000	-9.52947	0.000789647	1.00682	374.465
512.0000	-9.08736	0.000802203	1.00932	374.624
511.5000	-8.56004	0.000789851	1.01144	374.78
511.0000	-8.31426	0.000786282	1.01368	374.933
510.5000	-7.64307	0.000774571	1.01607	375.073
510.0000	-7.29182	0.000800338	1.01836	375.206
509.5000	-6.98987	0.000801242	1.0203	375.315
509.0000	-6.30552	0.00079762	1.02214	375.428
508.5000	-5.93083	0.00077853	1.02399	375.532
508.0000	-5.68577	0.000775722	1.02609	375.627
507.5000	-5.14011	0.000780511	1.02823	375.717
507.0000	-4.4851	0.00076833	1.03061	375.829
506.5000	-4.04611	0.000759589	1.03277	375.921
506.0000	-3.20638	0.000792763	1.03441	375.999
505.5000	-2.79257	0.000805273	1.03618	376.09
505.0000	-2.45539	0.00078995	1.0381	376.19
504.5000	-2.22428	0.000774404	1.04004	376.278
504.0000	-1.22776	0.000761215	1.0417	376.34
503.5000	-0.584978	0.00073659	1.0431	376.379
503.0000	-0.119426	0.000752043	1.04456	376.407
502.5000	0.175413	0.000800841	1.04549	376.396
502.0000	0.200465	0.000789092	1.04643	376.394
501.5000	1.04851	0.000768566	1.04729	376.362
501.0000	1.72378	0.000772768	1.04814	376.315
500.5000	2.41644	0.000784235	1.04897	376.238
500.0000	3.01658	0.000774369	1.04934	376.092
499.5000	3.88691	0.000781493	1.04876	375.864
499.0000	4.20398	0.000800911	1.04776	375.513
498.5000	4.67656	0.000817556	1.04618	375.009
498.0000	4.9567	0.000845348	1.0445	374.399
497.5000	5.20776	0.000827746	1.04311	373.647
497.0000	5.81147	0.000870346	1.04252	372.884
496.5000	6.97504	0.000915586	1.04315	372.184
496.0000	7.18403	0.00092238	1.04527	371.711
495.5000	7.54855	0.000929539	1.04757	371.397
495.0000	8.11509	0.000934768	1.04825	371.133
494.5000	8.88736	0.000930651	1.04815	370.896
494.0000	9.64196	0.0009181	1.04761	370.658
493.5000	10.6151	0.000919511	1.0468	370.388
493.0000	10.8552	0.0008934	1.04611	370.146
492.5000	11.6958	0.000913819	1.04533	369.895
492.0000	12.489	0.000889117	1.04428	369.63
491.5000	13.3775	0.000923023	1.04315	369.405
491.0000	14.5269	0.000937313	1.042	369.177
490.5000	15.8067	0.000945303	1.04091	368.996
490.0000	16.739	0.000923894	1.0397	368.856
489.5000	17.8466	0.000931091	1.03813	368.742
489.0000	18.3725	0.000926936	1.03572	368.564
488.5000	19.2546	0.000915532	1.03187	368.242
488.0000	20.1502	0.000901257	1.02628	367.649
487.5000	20.8994	0.000923594	1.0203	366.842
487.0000	21.6698	0.000936955	1.01557	365.967
486.5000	22.4624	0.000926221	1.01058	364.937
486.0000	23.1029	0.000921861	1.00629	363.932
485.5000	23.5333	0.000943744	1.0039	363.018
485.0000	24.2025	0.000951749	1.00238	362.202
484.5000	24.7184	0.000956088	1.00018	361.502
484.0000	25.6073	0.000995669	0.996963	360.835
483.5000	25.6104	0.000999464	0.993615	360.244
483.0000	25.9529	0.00103715	0.989553	359.663
482.5000	26.2807	0.00102642	0.985207	359.143
482.0000	26.5626	0.000994489	0.980607	358.658
481.5000	26.9058	0.00102894	0.975919	358.16
481.0000	27.2654	0.00100591	0.971496	357.7
480.5000	27.4831	0.000983985	0.966935	357.272
480.0000	27.8115	0.000991553	0.961643	356.81
479.5000	27.6227	0.000977091	0.955636	356.28
479.0000	28.0146	0.000980509	0.946724	355.467
478.5000	28.2557	0.00097743	0.937581	354.442
478.0000	28.8231	0.00101602	0.931183	353.349
477.5000	29.1004	0.00104532	0.92898	352.538
477.0000	29.1855	0.00104782	0.926176	351.852
476.5000	29.2807	0.00103295	0.918217	350.892
476.0000	29.7157	0.00105709	0.908745	349.71
475.5000	29.7907	0.00103534	0.898989	348.291
475.0000	30.2389	0.00103181	0.889469	346.684
474.5000	30.5524	0.00100884	0.881188	345.027
474.0000	30.6271	0.0010182	0.87316	343.219
473.5000	30.589	0.00102699	0.864457	341.166
473.0000	30.7118	0.00103314	0.856149	338.999
472.5000	30.84	0.00107473	0.850102	336.844
472.0000	30.9304	0.00107083	0.847842	335.166
471.5000	30.9316	0.00105932	0.846411	333.849
471.0000	31.0842	0.00108234	0.845136	333.075
470.5000	31.326	0.00109492	0.843977	332.619
470.0000	31.4436	0.00109641	0.841133	332.374
469.5000	31.3733	0.0010904	0.833517	331.946
469.0000	31.3484	0.0010704	0.82031	330.986
468.5000	31.4046	0.00107906	0.808673	329.779
468.0000	31.2319	0.00109389	0.800708	328.612
467.5000	31.243	0.00109791	0.795426	327.688
467.0000	31.2739	0.00111028	0.79175	327.026
466.5000	31.0174	0.00109728	0.788424	326.57
466.0000	30.8934	0.00111306	0.784266	326.298
465.5000	30.9971	0.00109954	0.779807	326.252
465.0000	30.7233	0.00112031	0.774541	326.437
464.5000	30.4659	0.00110975	0.766466	326.646
464.0000	30.22	0.00110413	0.754543	326.543
463.5000	30.0684	0.00110843	0.740834	326.052
463.0000	29.7903	0.00111241	0.728235	325.302
462.5000	29.5507	0.00109649	0.718227	324.489
462.0000	29.2418	0.0010828	0.709946	323.68
461.5000	29.0957	0.00108676	0.702687	322.999
461.0000	29.1219	0.00108267	0.695815	322.469
460.5000	28.765	0.0010848	0.688157	322.019
460.0000	28.6851	0.00109012	0.680535	321.659
459.5000	28.4583	0.00109083	0.671985	321.3
459.0000	28.0105	0.00109455	0.661841	320.83
458.5000	27.8679	0.00108517	0.650917	320.24
458.0000	27.6374	0.00108751	0.639217	319.465
457.5000	27.3977	0.00107822	0.627379	318.469
457.0000	27.2661	0.00108684	0.616879	317.373
456.5000	26.8433	0.00107265	0.608762	316.387
456.0000	26.6526	0.00107124	0.59934	315.391
455.5000	26.2334	0.00106056	0.586861	314.123
455.0000	25.8647	0.0010635	0.576182	312.848
454.5000	25.3491	0.00106382	0.569217	311.803
454.0000	24.86	0.0010533	0.562579	310.965
453.5000	24.4238	0.00106607	0.553806	310.228
453.0000	24.0301	0.00107196	0.544244	309.486
452.5000	23.7273	0.00106625	0.5348	308.711
452.0000	23.4301	0.00105719	0.525643	307.904
451.5000	23.0524	0.00106943	0.516092	307.065
451.0000	22.6417	0.00106847	0.506904	306.251
450.5000	22.0387	0.00104374	0.497547	305.408
450.0000	21.7147	0.00105998	0.48947	304.638
449.5000	21.3159	0.00106523	0.482832	304.041
449.0000	20.9077	0.00103853	0.476463	303.594
448.5000	20.4492	0.00104219	0.467505	303.05
448.0000	20.144	0.00105753	0.458085	302.401
447.5000	19.7103	0.00106497	0.451849	301.924
447.0000	19.3861	0.00106439	0.447482	301.688
446.5000	18.7708	0.00107458	0.441116	301.485
446.0000	18.6333	0.00106038	0.430392	301.001
445.5000	18.3241	0.00106299	0.419994	300.276
445.0000	17.9203	0.00105074	0.411433	299.452
444.5000	17.4621	0.00103043	0.403286	298.591
444.0000	17.1707	0.00103462	0.395581	297.745
443.5000	16.7055	0.00103011	0.387876	296.833
443.0000	16.4071	0.00104496	0.381763	296.057
442.5000	16.2752	0.00104436	0.375919	295.316
442.0000	15.9333	0.00104354	0.370518	294.69
441.5000	15.654	0.00103474	0.364393	294.029
441.0000	15.1517	0.00103381	0.358601	293.417
440.5000	14.7769	0.00102878	0.352876	292.815
440.0000	14.5826	0.00101268	0.346846	292.189
439.5000	14.3116	0.00100448	0.340516	291.544
439.0000	14.0054	0.000993806	0.333762	290.866
438.5000	13.7416	0.00099287	0.326705	290.182
438.0000	13.4494	0.000975443	0.319589	289.514
437.5000	13.1421	0.000968667	0.312911	288.877
437.0000	12.886	0.000970192	0.305712	288.212
436.5000	12.7278	0.000978033	0.300402	287.688
436.0000	12.5617	0.000989751	0.295313	287.201
435.5000	12.2323	0.000975266	0.289865	286.746
435.0000	11.9314	0.00096562	0.283734	286.266
434.5000	11.4787	0.000959898	0.277596	285.789
434.0000	11.1756	0.000951095	0.271555	285.287
433.5000	10.9217	0.000958665	0.265778	284.781
433.0000	10.7645	0.00096423	0.260054	284.23
432.5000	10.4733	0.000958722	0.25476	283.712
432.0000	10.2252	0.000971131	0.249138	283.17
431.5000	9.81175	0.000953678	0.243852	282.649
431.0000	9.69635	0.000946444	0.238736	282.13
430.5000	9.37427	0.000944311	0.233661	281.605
430.0000	9.15696	0.000928226	0.229008	281.104
429.5000	8.91052	0.000927879	0.223871	280.565
429.0000	8.73309	0.000915038	0.218988	280.044
428.5000	8.46366	0.000913365	0.21416	279.536
428.0000	8.21714	0.000900209	0.208904	279.016
427.5000	7.94331	0.000892813	0.204599	278.561
427.0000	7.69771	0.000878689	0.200313	278.097
426.5000	7.48667	0.0008676	0.19604	277.627
426.0000	7.29613	0.000871535	0.191568	277.12
425.5000	7.28961	0.000866076	0.187287	276.592
425.0000	6.91393	0.000865677	0.183001	276.055
424.5000	6.82225	0.000866983	0.178869	275.499
424.0000	6.67547	0.000865222	0.175084	274.958
423.5000	6.51176	0.00085328	0.171975	274.48
423.0000	6.34681	0.000855049	0.168529	274.038
422.5000	6.091	0.000852222	0.165056	273.65
422.0000	5.86956	0.000854591	0.161501	273.285
421.5000	5.84328	0.000851841	0.157929	272.927
421.0000	5.79982	0.000849045	0.154723	272.597
420.5000	5.47507	0.000844317	0.151336	272.256
420.0000	5.37646	0.000839509	0.147934	271.898
419.5000	5.09668	0.000833404	0.144682	271.536
419.0000	5.05623	0.000837044	0.141337	271.177
418.5000	4.98635	0.000834822	0.138227	270.873
418.0000	4.99834	0.000839624	0.135573	270.588
417.5000	4.8469	0.000834418	0.13269	270.301
417.0000	4.69146	0.000830619	0.130298	270.044
416.5000	4.67524	0.000816371	0.12817	269.845
416.0000	4.57998	0.000816038	0.125927	269.699
415.5000	4.43391	0.000813643	0.122929	269.501
415.0000	4.31019	0.000807794	0.119803	269.257
414.5000	4.34841	0.00081095	0.117251	268.99
414.0000	4.27957	0.000821711	0.115205	268.726
413.5000	4.1565	0.000828966	0.113356	268.462
413.0000	3.78175	0.000822716	0.111645	268.223
412.5000	3.72438	0.000824754	0.11003	268.015
412.0000	3.84648	0.000836639	0.108535	267.828
411.5000	3.72537	0.000836825	0.106627	267.627
411.0000	3.7425	0.000829798	0.105084	267.463
410.5000	3.57221	0.000819242	0.103736	267.308
410.0000	3.33582	0.000814477	0.10251	267.163
409.5000	3.08819	0.000811287	0.101298	267.032
409.0000	2.9993	0.000809503	0.100099	266.92
408.5000	2.97093	0.000812676	0.0984671	266.798
408.0000	2.74213	0.000810133	0.0967162	266.679
407.5000	2.68446	0.000799262	0.0948803	266.547
407.0000	2.66381	0.000804885	0.0934261	266.421
406.5000	2.50644	0.000804306	0.092148	266.297
406.0000	2.41535	0.000804255	0.0907263	266.156
405.5000	2.26679	0.000798137	0.0890983	266.003
405.0000	2.24557	0.000783055	0.0874922	265.83
404.5000	2.22601	0.000788002	0.0860207	265.648
404.0000	2.07177	0.00078189	0.084958	265.448
403.5000	1.83503	0.000787799	0.0837863	265.216
403.0000	1.78289	0.00078386	0.0831021	264.983
402.5000	1.71293	0.000780816	0.0818834	264.719
402.0000	1.67448	0.000788332	0.0814362	264.494
401.5000	1.71838	0.000792165	0.0810682	264.246
401.0000	1.66503	0.000784581	0.0806436	264.032
400.5000	1.47133	0.000794083	0.0802033	263.828
400.0000	1.42733	0.000793491	0.079662	263.648
399.5000	1.4453	0.000788957	0.0797217	263.484
399.0000	1.33142	0.000792063	0.0798832	263.362
398.5000	1.27044	0.000783529	0.0796014	263.235
398.0000	1.18044	0.00078043	0.0792975	263.131
397.5000	1.12021	0.000767106	0.0790252	263.055
397.0000	1.08538	0.000762489	0.0791988	263.013
396.5000	0.942773	0.00076172	0.0791776	263.001
396.0000	0.849582	0.000759595	0.0791307	263.005
395.5000	0.841733	0.000758189	0.0787654	263.038
395.0000	0.812807	0.000763131	0.0786037	263.104
394.5000	0.919773	0.000751976	0.0785697	263.194
394.0000	0.860313	0.000768778	0.0785894	263.312
393.5000	0.879983	0.000773326	0.0783143	263.445
393.0000	0.854249	0.000755797	0.0778565	263.589
392.5000	0.943207	0.000758394	0.0774906	263.717
392.0000	1.07845	0.000753278	0.0775103	263.843
391.5000	1.04451	0.000760499	0.0776982	263.95
391.0000	0.960527	0.000762903	0.0777306	264.045
390.5000	0.867648	0.000766905	0.0776119	264.137
390.0000	0.772371	0.000777924	0.0775405	264.224
389.5000	0.691857	0.000788813	0.0778402	264.305
389.0000	0.562187	0.000791964	0.078125	264.364
388.5000	0.578312	0.000789589	0.0783341	264.432
388.0000	0.612258	0.0008049	0.0783852	264.492
387.5000	0.658919	0.000796005	0.0787699	264.551
387.0000	0.566577	0.000796784	0.0796525	264.609
386.5000	0.45076	0.000801702	0.0803764	264.663
386.0000	0.330965	0.000803596	0.0813201	264.72
385.5000	0.140704	0.000788726	0.0820603	264.755
385.0000	0.0821128	0.000789303	0.0828531	264.79
384.5000	0.00104779	0.000795763	0.0835695	264.816
384.0000	-0.134549	0.000799725	0.0845594	264.853
383.5000	-0.0234388	0.000800121	0.0851543	264.88
383.0000	0.0263887	0.000793537	0.0856322	264.909
382.5000	0.0550399	0.000782917	0.086208	264.939
382.0000	0.0560477	0.00079186	0.0872562	264.972
381.5000	-0.00154503	0.000787928	0.088442	265.007
381.0000	0.0161105	0.000797395	0.0894588	265.055
380.5000	0.0391278	0.000796205	0.0904527	265.116
380.0000	0.0472891	0.000796488	0.0917046	265.179
379.5000	0.0101679	0.000805753	0.0929796	265.241
379.0000	-0.0189619	0.000798578	0.0938724	265.301
378.5000	0.0701739	0.000801789	0.0942762	265.347
378.0000	0.0981203	0.000793455	0.094819	265.399
377.5000	0.262124	0.000786084	0.0953379	265.435
377.0000	0.386024	0.000802232	0.0958212	265.469
376.5000	0.283626	0.000802858	0.0963769	265.487
376.0000	0.280734	0.000798681	0.0970764	265.51
375.5000	0.148065	0.000795996	0.0975012	265.526
375.0000	-0.0242352	0.000795921	0.0980821	265.547
374.5000	-0.137864	0.000812383	0.0986162	265.557
374.0000	-0.186441	0.000811343	0.0990601	265.556
373.5000	-0.109497	0.000804069	0.0994139	265.555
373.0000	-0.00953811	0.000786263	0.0995246	265.553
372.5000	0.0619364	0.000784707	0.0997556	265.553
372.0000	0.196245	0.000789565	0.0998837	265.54
371.5000	0.205775	0.000785736	0.100043	265.537
371.0000	0.128983	0.000765537	0.100372	265.534
370.5000	0.181513	0.000790842	0.100806	265.534
370.0000	0.257083	0.000792999	0.101253	265.55
369.5000	0.182601	0.000778348	0.101665	265.569
369.0000	0.0808417	0.000786994	0.102102	265.592
368.5000	-0.0482805	0.00078741	0.102684	265.621
368.0000	0.0563774	0.000789739	0.10329	265.677
367.5000	-0.0199653	0.000788179	0.103898	265.728
367.0000	0.175304	0.000787303	0.104686	265.78
366.5000	0.290109	0.000787185	0.105232	265.838
366.0000	0.218886	0.000780534	0.105905	265.919
365.5000	0.185631	0.000780891	0.106437	265.989
365.0000	0.0480578	0.000783477	0.106815	266.057
364.5000	0.0593734	0.000793144	0.107493	266.13
364.0000	0.0194168	0.000793206	0.108018	266.208
363.5000	-0.0593593	0.00080221	0.108739	266.276
363.0000	0.0165272	0.000793558	0.109503	266.351
362.5000	0.0461402	0.000788061	0.11013	266.427
362.0000	-0.0780767	0.000771947	0.11081	266.511
361.5000	-0.108392	0.000783724	0.111569	266.585
361.0000	-0.164184	0.00078293	0.112296	266.659
360.5000	-0.277708	0.000774779	0.112853	266.738
360.0000	-0.266581	0.000774661	0.113377	266.805
359.5000	-0.244584	0.000766842	0.113927	266.881
359.0000	-0.202569	0.000764841	0.114352	266.966
358.5000	-0.181334	0.000767422	0.114344	267.025
358.0000	-0.26446	0.000761297	0.114546	267.098
357.5000	-0.273333	0.000769052	0.114584	267.158
357.0000	-0.27977	0.000760644	0.114947	267.225
356.5000	-0.236582	0.000772482	0.115608	267.289
356.0000	-0.316404	0.000756838	0.116023	267.363
355.5000	-0.286969	0.000751133	0.116262	267.425
355.0000	-0.230005	0.000739524	0.11642	267.489
354.5000	-0.349625	0.000744537	0.116438	267.543
354.0000	-0.467378	0.000746186	0.116726	267.611
353.5000	-0.42736	0.000752727	0.116848	267.664
353.0000	-0.461506	0.00075599	0.117075	267.733
352.5000	-0.50324	0.000755509	0.117359	267.805
352.0000	-0.408689	0.000745578	0.117521	267.865
351.5000	-0.379537	0.000743344	0.117868	267.939
351.0000	-0.406712	0.000754555	0.118311	267.991
350.5000	-0.523895	0.000742759	0.118817	268.04
350.0000	-0.694708	0.000738597	0.11968	268.115
349.5000	-0.81252	0.000728037	0.120445	268.175
349.0000	-0.786097	0.000732092	0.121339	268.238
348.5000	-0.861226	0.000733097	0.122375	268.307
348.0000	-0.94577	0.000714667	0.123009	268.363
347.5000	-1.04613	0.000727653	0.123927	268.419
347.0000	-1.1275	0.000728863	0.125056	268.49
346.5000	-1.27428	0.000716508	0.125936	268.556
346.0000	-1.17256	0.000713051	0.126489	268.601
345.5000	-1.23618	0.000707353	0.127287	268.652
345.0000	-1.35692	0.000701309	0.128276	268.717
344.5000	-1.17182	0.000697921	0.129042	268.762
344.0000	-1.18513	0.000688108	0.130088	268.815
343.5000	-1.09592	0.000679024	0.130911	268.871
343.0000	-1.04839	0.000667574	0.131536	268.92
342.5000	-0.974993	0.000664954	0.132009	268.968
342.0000	-0.916363	0.000668909	0.132634	269.032
341.5000	-0.827746	0.000677123	0.133234	269.086
341.0000	-0.714164	0.000674788	0.134084	269.143
340.5000	-0.571544	0.000667481	0.13477	269.21
340.0000	-0.67351	0.000661781	0.135364	269.271
339.5000	-0.499217	0.000654882	0.135796	269.342
339.0000	-0.515724	0.000642951	0.136293	269.394
338.5000	-0.436713	0.000638237	0.137027	269.46
338.0000	-0.429034	0.000649535	0.137808	269.535
337.5000	-0.527993	0.00065634	0.138674	269.625
337.0000	-0.403754	0.000656077	0.13934	269.707
336.5000	-0.333306	0.000647363	0.140175	269.784
336.0000	-0.133244	0.000647211	0.14083	269.859
335.5000	0.0719376	0.000657146	0.141392	269.923
335.0000	-0.0628253	0.000649137	0.142013	269.993
334.5000	8.74961E-005	0.000637986	0.14271	270.079
334.0000	0.110467	0.000633105	0.143681	270.177
333.5000	0.0930056	0.000634971	0.144976	270.273
333.0000	-0.0210018	0.000626834	0.145998	270.375
332.5000	-0.0724367	0.000611929	0.146613	270.468
332.0000	-0.0708842	0.000614151	0.147284	270.559
331.5000	0.0360277	0.000618085	0.148166	270.649
331.0000	0.172592	0.000629684	0.149366	270.764
330.5000	0.159702	0.000634519	0.150089	270.856
330.0000	-0.0961952	0.000614887	0.151039	270.96
329.5000	0.0211375	0.000601834	0.15222	271.085
329.0000	0.133887	0.00058015	0.153105	271.195
328.5000	0.113691	0.000576042	0.154006	271.294
328.0000	0.0685377	0.000569744	0.15466	271.38
327.5000	-0.183903	0.000559579	0.155723	271.486
327.0000	-0.360261	0.00055063	0.156977	271.585
326.5000	-0.20716	0.000564586	0.158467	271.702
326.0000	-0.451312	0.00055237	0.160181	271.836
325.5000	-0.578389	0.000552126	0.161649	271.969
325.0000	-0.597729	0.000529999	0.162753	272.099
324.5000	-0.419985	0.000525376	0.164128	272.24
324.0000	-0.388032	0.000512987	0.165714	272.384
323.5000	-0.394102	0.000508503	0.167439	272.529
323.0000	-0.623192	0.00048547	0.168993	272.684
322.5000	-0.762665	0.000469523	0.170445	272.833
322.0000	-0.804772	0.000452236	0.171845	272.99
321.5000	-0.684367	0.000447698	0.173429	273.142
321.0000	-0.777188	0.000430858	0.175053	273.294
320.5000	-0.708206	0.000431658	0.17692	273.463
320.0000	-0.71569	0.000431642	0.178582	273.627
319.5000	-0.693782	0.000424274	0.180277	273.793
319.0000	-0.730609	0.000429304	0.18186	273.974
318.5000	-0.730866	0.000423479	0.183638	274.181
318.0000	-0.747914	0.000419553	0.185061	274.351
317.5000	-0.633754	0.000416021	0.186508	274.505
317.0000	-0.500099	0.000415283	0.188169	274.652
316.5000	-0.571221	0.000405916	0.189816	274.785
316.0000	-0.516887	0.0003929	0.191576	274.93
315.5000	-0.391489	0.000393487	0.193132	275.089
315.0000	-0.263684	0.000396681	0.194824	275.272
314.5000	-0.114836	0.000400314	0.196499	275.453
314.0000	0.101064	0.000397577	0.198246	275.632
313.5000	0.223366	0.000390068	0.200294	275.833
313.0000	0.403292	0.000403462	0.202393	276.05
312.5000	0.541236	0.000409014	0.204179	276.25
312.0000	0.633122	0.000390837	0.206094	276.444
311.5000	0.681462	0.000392202	0.208055	276.653
311.0000	0.766951	0.000387058	0.210439	276.879
310.5000	0.862388	0.00037979	0.212662	277.13
310.0000	0.912241	0.000370091	0.215019	277.372
309.5000	0.978678	0.000356056	0.217672	277.638
309.0000	1.1512	0.00035528	0.220558	277.932
308.5000	1.13244	0.000334229	0.223468	278.257
308.0000	1.19527	0.000336928	0.226206	278.562
307.5000	1.11325	0.000334596	0.229587	278.919
307.0000	1.21598	0.000328535	0.232979	279.258
306.5000	1.44907	0.000321332	0.23665	279.623
306.0000	1.68301	0.000319138	0.240488	279.991
305.5000	1.75055	0.000321164	0.244602	280.412
305.0000	1.90623	0.000318667	0.248743	280.824
304.5000	2.07963	0.000318198	0.253573	281.286
304.0000	2.11862	0.000310337	0.258943	281.79
303.5000	2.06675	0.000300979	0.264386	282.303
303.0000	2.15054	0.000297517	0.270327	282.884
302.5000	2.18017	0.000274079	0.276444	283.487
302.0000	2.27066	0.000271769	0.283107	284.124
301.5000	2.4185	0.000264251	0.290041	284.783
301.0000	2.67363	0.000269522	0.296966	285.462
300.5000	2.92424	0.000261657	0.303267	286.084
300.0000	3.16769	0.000254278	0.311133	286.829
299.5000	3.41821	0.000249175	0.318825	287.568
299.0000	3.55003	0.000257129	0.326243	288.298
298.5000	3.6489	0.000245287	0.334097	289.082
298.0000	3.76695	0.000241441	0.341517	289.815
297.5000	3.84791	0.000239313	0.349317	290.579
297.0000	3.9448	0.000236521	0.356505	291.244
296.5000	4.10713	0.000236104	0.363401	291.901
296.0000	4.10473	0.000218469	0.370155	292.551
295.5000	4.2021	0.000212339	0.376692	293.155
295.0000	4.5181	0.000228779	0.383033	293.723
294.5000	4.68655	0.000237458	0.389162	294.285
294.0000	4.72679	0.000238283	0.395093	294.871
293.5000	4.83833	0.000231705	0.39956	295.332
293.0000	4.87002	0.000256029	0.404463	295.828
292.5000	4.98138	0.000256948	0.409151	296.325
292.0000	4.94746	0.000283277	0.413231	296.777
291.5000	4.92724	0.000275283	0.417061	297.192
291.0000	4.9195	0.00026545	0.420807	297.597
290.5000	4.75836	0.000263303	0.424672	298.008
290.0000	4.71151	0.000296284	0.428329	298.381
289.5000	4.74617	0.000297055	0.431418	298.728
289.0000	4.71793	0.000309115	0.434404	299.071
288.5000	4.68608	0.000308546	0.437611	299.448
288.0000	4.62654	0.000328499	0.440579	299.805
287.5000	4.6719	0.00036407	0.443733	300.192
287.0000	4.69089	0.000371333	0.446904	300.622
286.5000	4.65677	0.000395178	0.449588	301.024
286.0000	4.70789	0.000409327	0.4524	301.403
285.5000	4.87573	0.000433022	0.455462	301.757
285.0000	4.94468	0.000447533	0.458836	302.146
284.5000	4.83672	0.000443774	0.461802	302.498
284.0000	5.05583	0.000464933	0.465061	302.877
283.5000	4.99786	0.000485108	0.468527	303.265
283.0000	4.91503	0.000524273	0.471898	303.648
282.5000	5.13534	0.000563464	0.475508	304.052
282.0000	5.25829	0.000585589	0.478944	304.473
281.5000	5.32637	0.000592566	0.482496	304.907
281.0000	5.34151	0.000617061	0.486442	305.36
280.5000	5.42269	0.000636931	0.490487	305.848
280.0000	5.35622	0.000679425	0.495081	306.387
279.5000	5.53591	0.000696634	0.499767	306.946
279.0000	5.70049	0.00071544	0.504359	307.505
278.5000	5.99671	0.000749606	0.509508	308.115
278.0000	5.89348	0.000735126	0.515837	308.803
277.5000	6.04666	0.000776402	0.521908	309.465
277.0000	6.22399	0.000818598	0.528702	310.23
276.5000	6.40012	0.000866466	0.535752	311.036
276.0000	6.66598	0.000891847	0.542604	311.808
275.5000	6.78414	0.000929088	0.551032	312.724
275.0000	7.16593	0.000963269	0.559905	313.692
274.5000	7.51134	0.000976434	0.569261	314.733
274.0000	7.82754	0.00100161	0.579534	315.902
273.5000	7.90633	0.00102393	0.589815	317.034
273.0000	8.46795	0.0010573	0.601279	318.291
272.5000	8.54006	0.00111193	0.613317	319.621
272.0000	8.93254	0.0011326	0.626109	321.049
271.5000	9.59782	0.00114864	0.640121	322.618
271.0000	9.78089	0.00118328	0.65464	324.21
270.5000	10.2251	0.00122349	0.670276	325.907
270.0000	10.7839	0.00125482	0.686613	327.72
269.5000	11.344	0.0012997	0.703551	329.64
269.0000	11.6862	0.00133601	0.720554	331.559
268.5000	12.172	0.00134727	0.739689	333.71
268.0000	12.6349	0.00136317	0.759781	335.966
267.5000	12.9101	0.00138871	0.78092	338.355
267.0000	13.5548	0.00142376	0.803958	341.005
266.5000	14.2551	0.00145893	0.827771	343.78
266.0000	14.6321	0.00151224	0.850552	346.397
265.5000	14.9768	0.00154692	0.875421	349.24
265.0000	15.8513	0.00157786	0.901802	352.321
264.5000	16.1145	0.00159051	0.927167	355.33
264.0000	16.6595	0.00160192	0.952599	358.371
263.5000	16.9585	0.0016346	0.97962	361.596
263.0000	16.9072	0.00162819	1.00405	364.537
262.5000	17.1115	0.00162925	1.03053	367.794
262.0000	16.7427	0.00162182	1.05505	370.883
261.5000	16.5784	0.00161778	1.07922	373.925
261.0000	16.8511	0.00162231	1.10255	376.829
260.5000	16.9525	0.00158827	1.12655	379.864
260.0000	17.3257	0.001608	1.15022	382.9
259.5000	16.9529	0.00162475	1.1734	385.915
259.0000	17.1069	0.0016146	1.19604	388.917
258.5000	16.9584	0.00159753	1.21892	391.931
258.0000	16.6189	0.0015912	1.24169	394.952
257.5000	16.6306	0.00156991	1.26317	397.821
257.0000	16.636	0.0015722	1.28579	400.867
256.5000	16.1086	0.00155998	1.30737	403.783
256.0000	15.9953	0.00154414	1.33042	406.894
255.5000	16.4536	0.00151636	1.35372	410.042
255.0000	16.4109	0.00154087	1.3772	413.244
254.5000	16.5087	0.00156158	1.39961	416.322
254.0000	16.3075	0.00152447	1.42214	419.425
253.5000	17.2452	0.00150193	1.44739	422.861
253.0000	16.8674	0.00143007	1.47002	425.991
252.5000	16.0995	0.00140568	1.50243	430.567
252.0000	15.7441	0.00141379	1.52876	434.299
251.5000	15.438	0.00132453	1.55107	437.468
251.0000	14.7448	0.00133457	1.57313	440.575
250.5000	14.5052	0.00130708	1.5942	443.596
250.0000	13.8475	0.00130302	1.61326	446.372
249.5000	13.445	0.00123201	1.63145	449.051
249.0000	12.9047	0.00117536	1.64987	451.778
248.5000	13.2331	0.00107979	1.6668	454.274
248.0000	12.2501	0.000991099	1.68374	456.8
247.5000	11.0385	0.000892733	1.69916	459.142
247.0000	10.0485	0.000802766	1.71473	461.539
246.5000	9.44081	0.000673696	1.73013	463.898
246.0000	8.80175	0.000625963	1.74551	466.239
245.5000	8.0409	0.000594048	1.76119	468.702
245.0000	8.49928	0.000556956	1.77703	471.196
244.5000	7.65807	0.000510156	1.79328	473.75
244.0000	6.63006	0.000352871	1.80975	476.373
243.5000	6.08919	0.000283908	1.82583	478.965
243.0000	5.47036	0.00022437	1.84253	481.699
242.5000	4.58478	0.000131143	1.862	484.903
242.0000	4.05235	4.60352E-005	1.87999	487.873
241.5000	4.84546	4.46496E-005	1.90127	491.393
241.0000	4.76355	-4.07837E-005	1.92206	494.837
240.5000	3.98332	-0.000162291	1.94643	498.957
240.0000	2.95015	-0.00020188	1.97032	503.001
239.5000	3.47351	-0.000142276	2.00033	508.095
239.0000	4.17204	-0.000182759	2.02865	512.889
238.5000	4.7765	-8.98217E-005	2.06067	518.348
238.0000	7.61549	-0.000143118	2.09669	524.579
237.5000	6.65651	-0.000169588	2.13146	530.661
237.0000	6.47198	-9.81277E-005	2.17055	537.546
236.5000	7.93363	-0.000196581	2.21215	544.933
236.0000	8.47037	-0.000207278	2.25411	552.437
235.5000	10.3137	-0.000217386	2.30519	561.711
235.0000	11.0824	-0.000242136	2.34156	568.391
234.5000	10.8789	-0.000198871	2.38183	575.838
234.0000	12.2105	-0.000176634	2.42606	584.089
233.5000	13.7955	-8.60672E-005	2.47736	593.736
233.0000	15.4415	-0.000119224	2.53295	604.339
232.5000	19.3663	0.000166815	2.58767	614.965
232.0000	19.8667	0.000180777	2.65318	627.918
231.5000	20.088	3.075E-006	2.70812	638.991
231.0000	19.0482	-0.000360271	2.77053	651.772
230.5000	18.9001	-0.000548613	2.83334	664.937
230.0000	17.4923	-0.000737966	2.89326	677.796
229.5000	16.4533	-0.000818323	2.9564	691.588
229.0000	12.6391	-0.000746229	3.01876	705.519
228.5000	12.8305	-0.000611945	3.08005	719.471
228.0000	11.5503	-0.000967843	3.13675	732.665
227.5000	12.097	-0.000782442	3.1937	746.339
227.0000	8.61768	-0.00077962	3.24804	759.719
226.5000	9.13713	-0.000716824	3.3017	773.292
226.0000	8.81248	-0.000861	3.34702	785.129
225.5000	7.15867	-0.000752414	3.39118	797.051
225.0000	1.73713	-0.000778343	3.43095	808.301
224.5000	-0.892906	-0.000611512	3.46631	818.779
224.0000	-2.15356	-0.000845332	3.49748	828.425
223.5000	-4.65429	-0.000944821	3.52454	837.179
223.0000	-1.86678	-0.00067603	3.54729	844.998
222.5000	-1.19197	-7.92358E-005	3.56833	853.134
222.0000	-1.03084	8.39382E-005	3.58245	859.467
221.5000	-3.89999	0.000175781	3.59201	864.951
221.0000	-2.057	0.000451109	3.59654	868.822
220.5000	0.0612116	0.000224797	3.59792	871.998
220.0000	-0.934242	0.00070777	3.59611	874.604

##### Extended Information
[Comments]
Sample name	JS187+JS190_5E-5_H2O_10-90
Comment
User
Division
Company	Labo systeme complexes hors equilibre

[Detailed Information]
Creation date	1/23/2024 12:37 PM

Data array type	Linear data array * 4
Horizontal axis	Wavelength [nm]
Vertical axis(1)	CD [mdeg]
Vertical axis(2)	LD [dOD]
Vertical axis(3)	Abs
Vertical axis(4)	HT [V]
Start	700 nm
End	220 nm
Data interval	0.5 nm
Data points	961     

[Measurement Information]
Instrument name	CD Jasco
Model name	J-1500
Serial No.	A005261638

Detector	PM-539
Detector S/N	A0052PM539
  Lock-in amp.	X mode
  HT volt	Auto

Detector	EXPML-535
Detector S/N	A0001
  Lock-in amp.	X mode
  HT volt	Auto

Measurement date	1/23/2024 12:37 PM

Overload detect	1
Photometric mode	CD, LD, Abs, HT
Measure range	700 - 220 nm
Data pitch	0.5 nm
CD scale	200 mdeg/1.0 dOD
FL scale	200 mdeg/1.0 dOD
D.I.T.	1 sec
Bandwidth	1.00 nm
Start mode	Immediately
Scanning speed	500 nm/min
Baseline correction	Baseline
Shutter control	Auto


