TITLE	JS187+JS190_5E-5_H2O_35-65
DATA TYPE	
ORIGIN	JASCO
OWNER	
DATE	24/01/23
TIME	11:28:21
SPECTROMETER/DATA SYSTEM	
LOCALE	1033
RESOLUTION	
DELTAX	-0.5
XUNITS	NANOMETERS
YUNITS	CD [mdeg]
Y2UNITS	LD [dOD]
Y3UNITS	ABSORBANCE
Y4UNITS	HT [V]
FIRSTX	  700.0000
LASTX	  220.0000
NPOINTS	     961
FIRSTY	     1.23538
MAXY	    11.10812
MINY	   -15.98398
XYDATA
700.0000	1.23538	0.000201951	-0.0584784	298.793
699.5000	1.09706	0.000179791	-0.0595712	298.488
699.0000	0.988555	0.000170557	-0.0609404	298.113
698.5000	1.28316	0.000194757	-0.0616868	297.713
698.0000	1.31422	0.000181403	-0.0631137	297.25
697.5000	0.991962	0.000187292	-0.0650343	296.766
697.0000	1.06289	0.000220169	-0.0670326	296.257
696.5000	1.07885	0.000233824	-0.0682655	295.739
696.0000	0.972954	0.000238165	-0.0686757	295.182
695.5000	1.10123	0.000231137	-0.0687866	294.654
695.0000	1.1216	0.00021403	-0.0680866	294.203
694.5000	0.953441	0.000208908	-0.0672799	293.783
694.0000	0.852288	0.000217491	-0.0653005	293.396
693.5000	0.753562	0.000211789	-0.0629811	293.045
693.0000	0.722874	0.000218582	-0.0600514	292.749
692.5000	0.704741	0.000228888	-0.0570481	292.483
692.0000	0.650023	0.000244325	-0.0541286	292.249
691.5000	0.717249	0.000240144	-0.0510002	292.044
691.0000	0.762161	0.000233795	-0.0480979	291.836
690.5000	0.62099	0.000235467	-0.0460778	291.65
690.0000	0.751546	0.000226644	-0.0441889	291.498
689.5000	0.643969	0.000235477	-0.0418955	291.407
689.0000	0.365051	0.000233544	-0.0385913	291.392
688.5000	0.395515	0.000214178	-0.0350108	291.482
688.0000	0.298746	0.000221127	-0.0306573	291.67
687.5000	0.257713	0.000231549	-0.0261379	291.921
687.0000	0.145657	0.000244536	-0.0224566	292.172
686.5000	0.172182	0.00023362	-0.0197311	292.424
686.0000	0.194275	0.000215992	-0.0186153	292.657
685.5000	0.379533	0.000225497	-0.0186408	292.887
685.0000	0.0999359	0.000207608	-0.0190945	293.111
684.5000	0.122842	0.000206383	-0.0199707	293.339
684.0000	0.334983	0.000212241	-0.0214532	293.548
683.5000	0.398891	0.000211226	-0.0223808	293.77
683.0000	0.282329	0.000223745	-0.0232104	294.015
682.5000	0.201124	0.000220127	-0.0233365	294.281
682.0000	0.390973	0.000223573	-0.0234651	294.584
681.5000	0.40272	0.000204984	-0.0232535	294.871
681.0000	0.800575	0.000200804	-0.0235772	295.122
680.5000	1.16919	0.000221109	-0.0242328	295.318
680.0000	0.962444	0.000211152	-0.0265093	295.43
679.5000	0.965172	0.000187007	-0.0294292	295.477
679.0000	0.991017	0.000201602	-0.0332552	295.483
678.5000	1.07443	0.000207006	-0.0357625	295.48
678.0000	1.20755	0.000229033	-0.038009	295.462
677.5000	1.16748	0.000226436	-0.039307	295.443
677.0000	1.1084	0.000250384	-0.039767	295.431
676.5000	1.44338	0.000250349	-0.0395563	295.412
676.0000	1.21274	0.000234491	-0.0392685	295.396
675.5000	1.07691	0.000241013	-0.038925	295.385
675.0000	1.00536	0.000241665	-0.0382784	295.389
674.5000	0.918398	0.000231716	-0.0372248	295.4
674.0000	0.798926	0.000256056	-0.0361153	295.419
673.5000	0.808743	0.000267303	-0.0349626	295.442
673.0000	0.66541	0.000274745	-0.034637	295.482
672.5000	0.371175	0.000256669	-0.0343902	295.524
672.0000	0.499371	0.000278174	-0.0337692	295.578
671.5000	0.694951	0.000289569	-0.0326379	295.638
671.0000	0.456535	0.000273825	-0.0314798	295.703
670.5000	0.408998	0.000285631	-0.030197	295.763
670.0000	0.295062	0.000309686	-0.0289951	295.837
669.5000	0.483843	0.000313259	-0.0283134	295.916
669.0000	0.766	0.000313274	-0.0276152	295.995
668.5000	0.738128	0.000289412	-0.0268749	296.081
668.0000	0.610256	0.00027651	-0.0263767	296.177
667.5000	0.676196	0.00027875	-0.0258517	296.291
667.0000	0.380222	0.000271227	-0.0256421	296.403
666.5000	0.552203	0.000271013	-0.0255061	296.507
666.0000	0.598252	0.000288548	-0.0259411	296.632
665.5000	0.481082	0.000268321	-0.0259361	296.759
665.0000	0.673733	0.000252226	-0.0251224	296.887
664.5000	0.925834	0.000266442	-0.0240814	297.007
664.0000	0.553323	0.000252997	-0.0238817	297.113
663.5000	0.484398	0.000253945	-0.0248717	297.199
663.0000	0.697912	0.000250563	-0.0251141	297.277
662.5000	0.829241	0.000257137	-0.0254041	297.354
662.0000	0.98746	0.000236151	-0.0259068	297.406
661.5000	0.620781	0.000226042	-0.025892	297.446
661.0000	0.673013	0.000219992	-0.0261036	297.49
660.5000	0.705105	0.000221351	-0.026503	297.525
660.0000	0.956047	0.000234575	-0.0267593	297.539
659.5000	1.12254	0.000237042	-0.0274725	297.541
659.0000	1.24208	0.000232436	-0.0279036	297.534
658.5000	1.14278	0.000236498	-0.0283347	297.494
658.0000	1.09092	0.000226328	-0.0285244	297.426
657.5000	1.27329	0.000240127	-0.0294088	297.326
657.0000	0.940126	0.000249038	-0.0292976	297.218
656.5000	0.887577	0.000237019	-0.0304949	297.07
656.0000	1.28	0.000249365	-0.0314799	296.918
655.5000	1.44647	0.000235344	-0.0310018	296.754
655.0000	1.40246	0.000237214	-0.0310337	296.593
654.5000	1.43755	0.000230626	-0.0315727	296.433
654.0000	1.19022	0.000232299	-0.0310775	296.294
653.5000	1.25296	0.000232693	-0.0296643	296.183
653.0000	1.28308	0.000245998	-0.0281044	296.066
652.5000	0.937623	0.000257985	-0.0264201	295.987
652.0000	1.19154	0.000269473	-0.0244564	295.943
651.5000	0.881037	0.000279995	-0.0220191	295.926
651.0000	0.744644	0.000263377	-0.0191448	295.934
650.5000	0.954697	0.00027188	-0.0169343	295.975
650.0000	1.0496	0.000264699	-0.0141837	296.052
649.5000	0.902922	0.0002619	-0.0121403	296.136
649.0000	1.01444	0.000270474	-0.00967035	296.26
648.5000	1.12934	0.000260845	-0.00814418	296.405
648.0000	1.16981	0.000259247	-0.00616458	296.583
647.5000	0.880754	0.000260631	-0.00450776	296.756
647.0000	0.662162	0.000272127	-0.00343538	296.946
646.5000	0.722779	0.000274556	-0.00258178	297.137
646.0000	0.97494	0.000276161	-0.00100818	297.314
645.5000	1.06994	0.000271489	-0.000428896	297.469
645.0000	0.931627	0.000277396	-0.0009729	297.614
644.5000	0.999698	0.000274156	-0.00128766	297.734
644.0000	0.861111	0.000259793	-0.00163884	297.813
643.5000	0.703529	0.000262829	-0.00239056	297.866
643.0000	1.06915	0.000261293	-0.00314902	297.89
642.5000	1.18426	0.000265932	-0.00385759	297.891
642.0000	1.17999	0.000273645	-0.00438864	297.872
641.5000	1.26268	0.000272726	-0.00484847	297.852
641.0000	1.19197	0.000249351	-0.0050039	297.815
640.5000	1.15715	0.000254829	-0.00478648	297.762
640.0000	1.19715	0.000273304	-0.0043819	297.693
639.5000	1.17862	0.000267042	-0.00361916	297.617
639.0000	1.32937	0.000263196	-0.00303549	297.538
638.5000	1.30769	0.000242132	-0.00194533	297.456
638.0000	1.09126	0.000242157	-0.00142466	297.372
637.5000	0.971249	0.000259335	-0.00120814	297.278
637.0000	1.06626	0.000266439	-7.73035E-005	297.186
636.5000	1.2504	0.000256805	0.000708241	297.089
636.0000	1.41113	0.000249189	0.00108093	297.02
635.5000	1.66307	0.000244747	0.00154913	296.953
635.0000	1.31979	0.000256862	0.00249634	296.894
634.5000	1.03881	0.000232588	0.00331156	296.837
634.0000	0.660653	0.00023977	0.0041036	296.789
633.5000	0.658515	0.000233679	0.00444092	296.736
633.0000	0.752326	0.000247327	0.00518571	296.676
632.5000	0.752007	0.000247886	0.00546572	296.633
632.0000	0.897343	0.000246203	0.00568109	296.583
631.5000	0.851803	0.000246132	0.00615326	296.531
631.0000	1.02693	0.000276967	0.00653777	296.475
630.5000	0.888192	0.000277664	0.00692113	296.421
630.0000	0.921949	0.000293938	0.00738642	296.367
629.5000	1.16062	0.000298239	0.00796802	296.31
629.0000	1.24783	0.000309615	0.0083049	296.253
628.5000	1.24415	0.000296604	0.00846962	296.199
628.0000	0.983957	0.000315607	0.00875053	296.13
627.5000	0.881947	0.000334245	0.00937084	296.06
627.0000	0.513074	0.00031176	0.00954309	295.996
626.5000	0.712809	0.000299946	0.00951359	295.943
626.0000	0.728688	0.000304292	0.00945522	295.879
625.5000	0.877055	0.000312507	0.0100847	295.821
625.0000	0.596398	0.000295782	0.0109928	295.783
624.5000	0.695568	0.000308184	0.0119774	295.755
624.0000	0.614892	0.000326972	0.0128709	295.738
623.5000	0.411682	0.000343828	0.0138989	295.739
623.0000	0.315217	0.00033545	0.0148345	295.746
622.5000	0.476117	0.00034419	0.0159335	295.766
622.0000	0.325061	0.000341807	0.0167406	295.795
621.5000	0.333255	0.000341317	0.017702	295.844
621.0000	0.223597	0.000337204	0.0187284	295.905
620.5000	0.291819	0.000321699	0.0193216	295.96
620.0000	0.235371	0.000307389	0.019824	296.03
619.5000	0.45308	0.000293473	0.0207142	296.126
619.0000	0.655322	0.000279032	0.0220786	296.241
618.5000	0.986649	0.000300769	0.023744	296.36
618.0000	0.771815	0.000310042	0.0254741	296.487
617.5000	1.14197	0.000327533	0.0262541	296.626
617.0000	0.895457	0.000341338	0.0267743	296.773
616.5000	1.17004	0.000331887	0.0271152	296.898
616.0000	1.27995	0.000322812	0.0279204	297.024
615.5000	1.50467	0.000304255	0.0283107	297.149
615.0000	1.75229	0.000288727	0.0285813	297.271
614.5000	1.76932	0.000279055	0.0287852	297.404
614.0000	1.65969	0.000288769	0.0289907	297.533
613.5000	1.74428	0.000285044	0.029349	297.655
613.0000	1.7565	0.000303167	0.0295709	297.78
612.5000	1.56127	0.000315977	0.0299629	297.911
612.0000	1.7406	0.000338191	0.0305287	298.048
611.5000	1.74976	0.000352053	0.0312777	298.172
611.0000	1.76762	0.000350821	0.0314451	298.29
610.5000	1.90025	0.000348226	0.031581	298.413
610.0000	1.85254	0.000337217	0.0314137	298.513
609.5000	1.8756	0.000336873	0.0319397	298.619
609.0000	1.85533	0.000322799	0.0323368	298.709
608.5000	1.74251	0.000314764	0.033102	298.799
608.0000	1.50539	0.000334605	0.0335716	298.891
607.5000	1.54885	0.000326289	0.0335441	298.974
607.0000	1.45757	0.000316631	0.0338695	299.057
606.5000	1.45785	0.000324245	0.0344614	299.152
606.0000	1.57951	0.000328939	0.0354869	299.221
605.5000	1.59061	0.000332007	0.0364009	299.309
605.0000	1.65548	0.000340073	0.0375277	299.384
604.5000	1.6944	0.000339023	0.0384024	299.456
604.0000	1.3987	0.000345571	0.0394335	299.516
603.5000	1.35503	0.000349629	0.0407491	299.586
603.0000	1.39798	0.000346347	0.0415628	299.648
602.5000	1.37386	0.000344649	0.0428722	299.711
602.0000	1.74185	0.000362981	0.0444738	299.785
601.5000	1.8208	0.000363989	0.045838	299.85
601.0000	1.77749	0.000361251	0.0472075	299.914
600.5000	1.9084	0.000369879	0.0490079	299.966
600.0000	1.92512	0.000373164	0.0504886	300.012
599.5000	1.86172	0.00038071	0.0528973	300.062
599.0000	1.88142	0.000403997	0.0548374	300.101
598.5000	1.81842	0.000411983	0.057309	300.133
598.0000	1.98569	0.000421526	0.0592842	300.158
597.5000	1.83729	0.000432772	0.0610523	300.18
597.0000	1.80663	0.000420086	0.0632291	300.213
596.5000	1.92262	0.000417101	0.065574	300.237
596.0000	2.02051	0.000437477	0.0681453	300.277
595.5000	1.92377	0.000414211	0.0705529	300.317
595.0000	1.65966	0.000407553	0.0729892	300.322
594.5000	1.66478	0.000413856	0.075675	300.35
594.0000	1.52668	0.000431923	0.077841	300.38
593.5000	1.40882	0.000442419	0.0806029	300.413
593.0000	1.58212	0.00044937	0.0839003	300.464
592.5000	1.64819	0.000456601	0.0868402	300.547
592.0000	1.70663	0.000469348	0.0896773	300.643
591.5000	1.51144	0.000459499	0.0919629	300.714
591.0000	1.46524	0.000457635	0.0950388	300.817
590.5000	1.47489	0.000462912	0.0979932	300.948
590.0000	1.41748	0.000472891	0.101233	301.097
589.5000	1.3048	0.000457263	0.104823	301.265
589.0000	1.13065	0.000456478	0.108483	301.444
588.5000	0.938657	0.000457141	0.112076	301.642
588.0000	0.798787	0.000450557	0.116141	301.87
587.5000	0.837356	0.000454598	0.120238	302.116
587.0000	0.872168	0.000454105	0.124608	302.425
586.5000	0.780519	0.000465462	0.128788	302.724
586.0000	0.414181	0.00045869	0.133696	303.044
585.5000	0.302575	0.000459496	0.138315	303.388
585.0000	0.395746	0.000459034	0.142906	303.745
584.5000	0.291595	0.000489794	0.147484	304.102
584.0000	0.053384	0.000486958	0.152845	304.51
583.5000	-0.262347	0.000476286	0.158469	304.942
583.0000	-0.34914	0.00047553	0.164814	305.421
582.5000	-0.406875	0.000485431	0.171123	305.937
582.0000	-0.749989	0.000501719	0.177468	306.453
581.5000	-0.956985	0.000536153	0.184358	307.027
581.0000	-1.10495	0.000542561	0.191773	307.628
580.5000	-1.0128	0.000566036	0.199318	308.247
580.0000	-1.36368	0.00056167	0.206956	308.896
579.5000	-1.53795	0.000574664	0.214629	309.563
579.0000	-1.67141	0.000609731	0.222701	310.259
578.5000	-2.04497	0.000632154	0.231399	310.977
578.0000	-2.43942	0.000639422	0.240353	311.75
577.5000	-2.70414	0.000648823	0.249417	312.593
577.0000	-3.08088	0.000667751	0.259269	313.429
576.5000	-3.46514	0.000667408	0.270204	314.366
576.0000	-3.84696	0.00066648	0.280977	315.296
575.5000	-4.14647	0.000687269	0.292524	316.289
575.0000	-4.62647	0.000715431	0.303229	317.259
574.5000	-5.01501	0.000731095	0.31522	318.326
574.0000	-5.35819	0.000730934	0.327457	319.393
573.5000	-5.64286	0.000738472	0.339766	320.48
573.0000	-5.99366	0.000734884	0.352651	321.675
572.5000	-6.55285	0.00072848	0.364858	322.815
572.0000	-6.98785	0.000731084	0.378862	324.144
571.5000	-7.54444	0.000748188	0.392727	325.44
571.0000	-7.8712	0.000761328	0.408109	326.833
570.5000	-8.42857	0.000765968	0.42338	328.275
570.0000	-8.4887	0.000788931	0.438169	329.686
569.5000	-9.03156	0.000794778	0.454439	331.188
569.0000	-9.67683	0.000791465	0.470843	332.704
568.5000	-10.2185	0.00077602	0.486015	334.168
568.0000	-10.8036	0.000783689	0.501467	335.694
567.5000	-11.3062	0.000814055	0.517238	337.25
567.0000	-11.6272	0.000827478	0.532732	338.744
566.5000	-11.7827	0.000806984	0.548044	340.207
566.0000	-12.5114	0.000815522	0.563085	341.645
565.5000	-12.9656	0.000810579	0.57761	343.07
565.0000	-13.3994	0.000824219	0.592063	344.457
564.5000	-13.47	0.000838018	0.606467	345.836
564.0000	-13.5105	0.000858954	0.619866	347.084
563.5000	-14.0468	0.00085808	0.632266	348.266
563.0000	-14.6089	0.000858037	0.644776	349.492
562.5000	-15.0463	0.00083594	0.656362	350.602
562.0000	-15.3049	0.000830012	0.667468	351.658
561.5000	-15.8857	0.000796917	0.679479	352.76
561.0000	-15.7445	0.000835341	0.690196	353.77
560.5000	-15.984	0.000867087	0.700015	354.697
560.0000	-15.7857	0.00089984	0.709559	355.567
559.5000	-15.6119	0.000881581	0.718495	356.327
559.0000	-15.3339	0.000874777	0.725812	356.938
558.5000	-15.2374	0.00086962	0.731968	357.464
558.0000	-14.9443	0.000847962	0.736965	357.876
557.5000	-14.6576	0.000841117	0.741736	358.228
557.0000	-14.5464	0.000824057	0.745812	358.49
556.5000	-14.7384	0.000802101	0.748733	358.678
556.0000	-14.6641	0.000774515	0.750301	358.775
555.5000	-14.6353	0.000761066	0.751587	358.804
555.0000	-13.9271	0.000789037	0.752209	358.74
554.5000	-13.5292	0.000761516	0.75244	358.591
554.0000	-12.9246	0.000759841	0.751328	358.358
553.5000	-12.3987	0.000771362	0.749756	358.073
553.0000	-12.1246	0.000757239	0.747666	357.743
552.5000	-11.9443	0.00073691	0.745862	357.39
552.0000	-11.6512	0.000692981	0.743297	356.949
551.5000	-11.8096	0.000660123	0.740499	356.496
551.0000	-11.3097	0.000655985	0.737072	356.02
550.5000	-11.1719	0.000662886	0.733443	355.506
550.0000	-11.0152	0.000686308	0.729821	354.964
549.5000	-10.7441	0.000698257	0.726414	354.425
549.0000	-10.4231	0.000701487	0.722517	353.899
548.5000	-9.88179	0.000684345	0.718708	353.395
548.0000	-9.82533	0.000700294	0.715744	352.854
547.5000	-9.68997	0.000681308	0.713075	352.371
547.0000	-9.38179	0.000687207	0.710407	351.867
546.5000	-9.23505	0.000690933	0.707861	351.444
546.0000	-9.18556	0.000684289	0.70487	351.047
545.5000	-9.23075	0.000722207	0.703237	350.682
545.0000	-9.50534	0.000700414	0.701825	350.389
544.5000	-9.27625	0.000713584	0.700705	350.117
544.0000	-9.10542	0.000730183	0.699573	349.89
543.5000	-9.43703	0.000721436	0.699074	349.719
543.0000	-9.4486	0.000729512	0.699109	349.588
542.5000	-9.47514	0.000736364	0.699953	349.512
542.0000	-9.3555	0.000735954	0.700834	349.477
541.5000	-9.56051	0.000754044	0.702218	349.516
541.0000	-9.94602	0.000744292	0.703683	349.586
540.5000	-10.0705	0.000768074	0.706271	349.701
540.0000	-10.2264	0.000786723	0.709472	349.865
539.5000	-10.1941	0.000793141	0.712724	350.089
539.0000	-10.3963	0.000803705	0.716291	350.384
538.5000	-10.5587	0.000780097	0.72057	350.735
538.0000	-10.7664	0.000801995	0.725446	351.105
537.5000	-11.1493	0.000764804	0.730926	351.552
537.0000	-11.1146	0.000764476	0.736614	352.045
536.5000	-11.2112	0.000783897	0.74267	352.563
536.0000	-11.4884	0.000770791	0.749579	353.154
535.5000	-11.4331	0.000798085	0.756545	353.762
535.0000	-11.6859	0.000826931	0.764346	354.441
534.5000	-11.8816	0.00081242	0.771932	355.112
534.0000	-11.9364	0.00080841	0.779996	355.838
533.5000	-12.311	0.000793589	0.788241	356.61
533.0000	-12.8461	0.000777137	0.79634	357.378
532.5000	-12.877	0.000738933	0.804706	358.183
532.0000	-13.0373	0.000740969	0.813709	359.045
531.5000	-12.9657	0.000726096	0.823026	359.927
531.0000	-13.2246	0.000774215	0.833447	360.866
530.5000	-13.3722	0.000755004	0.843191	361.776
530.0000	-13.4286	0.000765102	0.853184	362.734
529.5000	-13.1025	0.000788952	0.862946	363.668
529.0000	-12.7393	0.000810649	0.872363	364.536
528.5000	-12.8231	0.000788583	0.881595	365.409
528.0000	-13.1147	0.000767973	0.890426	366.242
527.5000	-13.2224	0.000731504	0.899694	367.097
527.0000	-13.2761	0.000714159	0.909689	368.02
526.5000	-12.7927	0.000697737	0.918684	368.872
526.0000	-12.8874	0.000719193	0.928223	369.752
525.5000	-12.4035	0.000735288	0.93746	370.598
525.0000	-12.0131	0.000748452	0.946401	371.416
524.5000	-11.6503	0.00076133	0.954612	372.142
524.0000	-11.7385	0.000769094	0.962157	372.8
523.5000	-11.4141	0.000777506	0.969486	373.471
523.0000	-11.4121	0.000766533	0.976411	374.097
522.5000	-11.1573	0.000753124	0.98264	374.676
522.0000	-10.4385	0.000782018	0.989106	375.251
521.5000	-10.4192	0.000758029	0.995618	375.806
521.0000	-10.3597	0.000759626	1.00145	376.307
520.5000	-10.1677	0.000746131	1.00709	376.788
520.0000	-9.79675	0.000742684	1.01194	377.192
519.5000	-9.3945	0.000779515	1.01673	377.557
519.0000	-8.96378	0.000785389	1.02106	377.901
518.5000	-8.51945	0.000813002	1.02493	378.229
518.0000	-8.61121	0.000804612	1.02917	378.561
517.5000	-8.211	0.000763785	1.03338	378.88
517.0000	-8.319	0.000746638	1.03755	379.168
516.5000	-8.0344	0.000709387	1.04158	379.437
516.0000	-7.58361	0.000729658	1.04531	379.695
515.5000	-7.00605	0.000730474	1.04847	379.942
515.0000	-6.80271	0.000656109	1.05148	380.161
514.5000	-6.0333	0.000629303	1.05439	380.383
514.0000	-5.80087	0.00059071	1.05701	380.561
513.5000	-5.43091	0.000603915	1.05974	380.742
513.0000	-4.84175	0.000610276	1.06219	380.933
512.5000	-4.77606	0.000632054	1.06502	381.138
512.0000	-4.42628	0.000608917	1.06771	381.321
511.5000	-3.5049	0.000601605	1.07019	381.521
511.0000	-3.17163	0.0005917	1.0728	381.718
510.5000	-2.80566	0.000582907	1.0754	381.885
510.0000	-3.19959	0.000555256	1.07783	382.035
509.5000	-2.8752	0.000557799	1.08011	382.187
509.0000	-2.61726	0.000599995	1.08211	382.32
508.5000	-2.81599	0.000603169	1.08408	382.439
508.0000	-2.14264	0.000630959	1.08634	382.554
507.5000	-1.99468	0.000589667	1.08874	382.677
507.0000	-1.79607	0.000598642	1.09127	382.806
506.5000	-1.53516	0.000632547	1.0937	382.93
506.0000	-1.69445	0.000644694	1.09564	383.045
505.5000	-1.37333	0.000648447	1.09762	383.162
505.0000	-1.20791	0.000635322	1.09955	383.265
504.5000	-1.50973	0.000623852	1.10164	383.371
504.0000	-0.996838	0.000608337	1.10348	383.456
503.5000	-1.32266	0.000579805	1.10507	383.518
503.0000	-1.43372	0.000576169	1.10661	383.555
502.5000	-1.4084	0.000591626	1.10791	383.587
502.0000	-1.03992	0.000582507	1.10905	383.608
501.5000	-0.461183	0.000587392	1.11009	383.596
501.0000	0.143459	0.000585687	1.11087	383.541
500.5000	0.855509	0.000554836	1.11167	383.46
500.0000	1.27247	0.000529157	1.11223	383.332
499.5000	1.51633	0.000518807	1.11166	383.102
499.0000	1.70695	0.000510418	1.11065	382.744
498.5000	1.67357	0.000508832	1.10929	382.258
498.0000	2.06088	0.000495551	1.1076	381.636
497.5000	2.54619	0.000494086	1.10619	380.87
497.0000	2.44407	0.000460497	1.10557	380.092
496.5000	2.84469	0.000460448	1.10628	379.389
496.0000	3.16473	0.000449703	1.10849	378.919
495.5000	3.49803	0.000476125	1.11074	378.594
495.0000	3.88948	0.000455897	1.11146	378.33
494.5000	4.23931	0.000457513	1.1111	378.06
494.0000	4.56271	0.000408041	1.11026	377.783
493.5000	4.65847	0.000403332	1.10925	377.486
493.0000	4.80854	0.000352913	1.10852	377.235
492.5000	4.77384	0.000360889	1.10781	376.989
492.0000	4.995	0.000348106	1.10678	376.722
491.5000	5.04437	0.000334176	1.10557	376.484
491.0000	5.3441	0.000327069	1.10449	376.26
490.5000	5.50157	0.000318573	1.10329	376.063
490.0000	5.56014	0.000290402	1.10188	375.899
489.5000	5.6865	0.000280983	1.10017	375.767
489.0000	6.01922	0.000243601	1.09779	375.589
488.5000	6.41161	0.000238355	1.09384	375.251
488.0000	6.51125	0.000224465	1.0881	374.632
487.5000	6.87539	0.000191329	1.08193	373.791
487.0000	7.18716	0.000195722	1.07706	372.886
486.5000	7.19949	0.000199749	1.07208	371.839
486.0000	7.50604	0.000223017	1.06779	370.818
485.5000	7.88385	0.000194176	1.06529	369.877
485.0000	8.18386	0.000176378	1.06374	369.046
484.5000	8.54735	0.000170519	1.06147	368.327
484.0000	8.67448	0.000169781	1.05807	367.628
483.5000	8.84266	0.00016755	1.05454	367.009
483.0000	9.2133	0.000158712	1.05016	366.383
482.5000	9.81085	0.000157722	1.0457	365.842
482.0000	10.2135	0.000172496	1.04092	365.329
481.5000	10.2962	0.000170261	1.03597	364.794
481.0000	10.4634	0.000153208	1.03129	364.298
480.5000	10.6303	0.000129766	1.02639	363.826
480.0000	10.5172	0.00013062	1.02099	363.345
479.5000	10.7031	0.000130454	1.01473	362.779
479.0000	10.7624	0.000122365	1.00569	361.939
478.5000	10.6504	0.000123942	0.996351	360.877
478.0000	10.9146	9.93622E-005	0.98953	359.721
477.5000	10.6478	8.93279E-005	0.986966	358.858
477.0000	10.5762	0.000105843	0.983859	358.128
476.5000	10.6318	0.000102228	0.975408	357.1
476.0000	10.8913	9.45255E-005	0.965477	355.851
475.5000	11.0934	0.00010562	0.955307	354.366
475.0000	11.0751	9.66642E-005	0.94546	352.701
474.5000	11.0553	9.63439E-005	0.936753	350.974
474.0000	10.9282	8.65984E-005	0.928433	349.108
473.5000	10.8908	7.26325E-005	0.919347	346.985
473.0000	10.6448	4.98585E-005	0.910743	344.755
472.5000	10.694	8.11163E-005	0.90442	342.54
472.0000	10.7088	9.88402E-005	0.901729	340.793
471.5000	10.6693	8.72322E-005	0.899838	339.41
471.0000	10.8571	9.12484E-005	0.898195	338.586
470.5000	11.0251	7.86523E-005	0.89658	338.076
470.0000	10.7863	8.76036E-005	0.893397	337.793
469.5000	10.856	8.16837E-005	0.885349	337.314
469.0000	10.9607	7.65167E-005	0.871897	336.316
468.5000	11.1081	7.56686E-005	0.859847	335.049
468.0000	10.8457	8.31282E-005	0.851453	333.823
467.5000	10.6353	6.8094E-005	0.845656	332.833
467.0000	10.7866	8.1397E-005	0.84143	332.106
466.5000	10.624	9.34599E-005	0.837674	331.599
466.0000	10.5813	8.4011E-005	0.832919	331.263
465.5000	10.419	7.79639E-005	0.827836	331.152
465.0000	10.5821	9.59162E-005	0.821994	331.281
464.5000	10.777	0.00010353	0.813212	331.419
464.0000	10.7645	9.46429E-005	0.800634	331.247
463.5000	10.4688	0.000103373	0.786291	330.686
463.0000	10.4589	0.000123033	0.773237	329.88
462.5000	10.3163	0.000115251	0.762751	329.009
462.0000	10.2503	0.00014041	0.753837	328.126
461.5000	10.3415	0.000164182	0.746062	327.384
461.0000	10.6431	0.000180832	0.73848	326.777
460.5000	10.5845	0.00018902	0.730345	326.274
460.0000	10.4621	0.000207948	0.722161	325.853
459.5000	10.2002	0.000193378	0.713112	325.439
459.0000	10.163	0.000209778	0.702459	324.913
458.5000	9.90072	0.000234155	0.69113	324.275
458.0000	9.86044	0.000258642	0.678914	323.44
457.5000	9.85516	0.000274605	0.666655	322.392
457.0000	9.6947	0.000297059	0.655722	321.241
456.5000	9.37778	0.000305123	0.646926	320.178
456.0000	9.35071	0.000341786	0.637014	319.123
455.5000	9.05368	0.000357413	0.624123	317.801
455.0000	9.08307	0.000361284	0.612941	316.465
454.5000	9.079	0.000386682	0.605151	315.328
454.0000	8.8751	0.000402259	0.597999	314.431
453.5000	8.82884	0.000405579	0.588648	313.63
453.0000	8.55969	0.000406607	0.578579	312.832
452.5000	8.35795	0.000417399	0.568858	312.024
452.0000	8.09543	0.000421008	0.559205	311.161
451.5000	8.1463	0.000436039	0.549118	310.262
451.0000	8.05552	0.000445793	0.53958	309.408
450.5000	7.75214	0.000451145	0.529576	308.494
450.0000	7.51725	0.000463191	0.521116	307.681
449.5000	7.37222	0.000478592	0.513906	307.023
449.0000	7.07751	0.000481376	0.507082	306.529
448.5000	6.77516	0.000502704	0.497516	305.922
448.0000	6.93083	0.000513115	0.487724	305.233
447.5000	6.6036	0.00050693	0.480909	304.697
447.0000	6.49096	0.000520675	0.476136	304.42
446.5000	6.30919	0.00054342	0.469305	304.171
446.0000	5.97819	0.000538162	0.458256	303.652
445.5000	5.936	0.000548953	0.447429	302.881
445.0000	5.63925	0.000554262	0.43847	302.013
444.5000	5.38844	0.000550608	0.429931	301.109
444.0000	5.41368	0.000563991	0.421749	300.212
443.5000	5.32084	0.000576356	0.413717	299.262
443.0000	5.01505	0.000573462	0.407203	298.444
442.5000	4.9547	0.000589907	0.401019	297.666
442.0000	4.90976	0.000589242	0.395338	297.01
441.5000	5.01693	0.000585558	0.388686	296.295
441.0000	4.92652	0.000596354	0.38258	295.65
440.5000	4.60382	0.000595581	0.37653	295.013
440.0000	4.61667	0.000584232	0.370224	294.358
439.5000	4.57319	0.000591331	0.363668	293.687
439.0000	4.6143	0.000601282	0.356667	292.983
438.5000	4.57081	0.000596134	0.349196	292.257
438.0000	4.5733	0.000609169	0.341707	291.55
437.5000	4.49896	0.000617138	0.334623	290.872
437.0000	4.47102	0.000619495	0.327215	290.184
436.5000	4.33386	0.000626405	0.321454	289.615
436.0000	4.2669	0.000642571	0.31613	289.104
435.5000	4.10224	0.000644939	0.310288	288.61
435.0000	4.1297	0.000660195	0.303945	288.109
434.5000	4.09603	0.000665658	0.297446	287.596
434.0000	3.99331	0.000663654	0.291013	287.056
433.5000	3.80549	0.000673937	0.284982	286.524
433.0000	3.64389	0.000675699	0.279167	285.961
432.5000	3.64612	0.000681597	0.273633	285.419
432.0000	3.69066	0.000690446	0.267636	284.841
431.5000	3.54492	0.000677964	0.261849	284.272
431.0000	3.56356	0.000679312	0.256243	283.706
430.5000	3.34142	0.000707595	0.250822	283.147
430.0000	3.08707	0.000703482	0.245836	282.614
429.5000	2.99649	0.000699473	0.240591	282.063
429.0000	2.87066	0.000702953	0.235282	281.501
428.5000	2.78779	0.00071046	0.230114	280.961
428.0000	2.84466	0.000718638	0.224512	280.408
427.5000	2.82192	0.000713147	0.219758	279.911
427.0000	2.5042	0.00072217	0.215264	279.427
426.5000	2.31993	0.000721796	0.210767	278.935
426.0000	2.14853	0.000730747	0.206094	278.408
425.5000	2.3063	0.000726342	0.201511	277.851
425.0000	2.23742	0.000721952	0.196924	277.285
424.5000	2.26064	0.000725338	0.192369	276.69
424.0000	2.21754	0.000725765	0.188377	276.129
423.5000	2.03603	0.000724588	0.185255	275.648
423.0000	1.80543	0.000727265	0.181763	275.2
422.5000	1.70862	0.00073051	0.178041	274.79
422.0000	1.62736	0.000719296	0.174226	274.4
421.5000	1.70558	0.000722188	0.170522	274.029
421.0000	1.86943	0.00072295	0.167144	273.684
420.5000	1.68351	0.000724036	0.163657	273.332
420.0000	1.65478	0.000720625	0.160239	272.972
419.5000	1.52888	0.000712172	0.156814	272.593
419.0000	1.38723	0.000709148	0.153352	272.223
418.5000	1.60106	0.000705511	0.15001	271.898
418.0000	1.39007	0.000713079	0.147042	271.584
417.5000	1.31073	0.000725539	0.144049	271.287
417.0000	1.16207	0.000721235	0.141414	271.008
416.5000	1.12667	0.000727665	0.139104	270.793
416.0000	1.18	0.000732381	0.136521	270.617
415.5000	1.12375	0.000739137	0.133436	270.411
415.0000	1.09545	0.000749464	0.130185	270.155
414.5000	1.1257	0.000749245	0.127547	269.88
414.0000	1.09984	0.0007551	0.125343	269.602
413.5000	0.903785	0.000760431	0.123299	269.32
413.0000	0.661884	0.000748318	0.121353	269.06
412.5000	0.749105	0.000749568	0.119629	268.842
412.0000	0.702695	0.000756708	0.118011	268.644
411.5000	0.853648	0.000766396	0.11603	268.437
411.0000	0.850533	0.000771046	0.114242	268.251
410.5000	0.777534	0.000772654	0.112802	268.087
410.0000	0.761458	0.000769969	0.111358	267.924
409.5000	0.761618	0.000772009	0.110079	267.786
409.0000	0.703251	0.000765632	0.10884	267.671
408.5000	0.686316	0.000767495	0.107271	267.553
408.0000	0.59441	0.00077309	0.105486	267.432
407.5000	0.622925	0.000770004	0.103504	267.286
407.0000	0.575357	0.000759338	0.101848	267.143
406.5000	0.454079	0.000741549	0.100397	267.004
406.0000	0.416415	0.000752099	0.0989446	266.86
405.5000	0.530433	0.000755233	0.0972918	266.704
405.0000	0.65774	0.000755823	0.0956873	266.531
404.5000	0.761349	0.000761304	0.0941588	266.344
404.0000	0.683214	0.000765262	0.0929326	266.13
403.5000	0.483689	0.000765534	0.0917266	265.894
403.0000	0.251175	0.000760201	0.0909091	265.649
402.5000	0.330594	0.000758126	0.0897078	265.386
402.0000	0.202428	0.00076337	0.0891662	265.153
401.5000	0.1993	0.000756063	0.0887479	264.9
401.0000	0.279358	0.000755303	0.0881137	264.668
400.5000	0.303974	0.000768538	0.0875464	264.453
400.0000	0.282188	0.000761232	0.0869369	264.266
399.5000	0.251541	0.000751144	0.0869339	264.097
399.0000	0.0915306	0.000752681	0.0870935	263.975
398.5000	0.185355	0.000768059	0.0868532	263.851
398.0000	0.189916	0.000766613	0.0865788	263.749
397.5000	0.0985453	0.00074796	0.0861814	263.662
397.0000	-0.00239698	0.000744668	0.0863209	263.617
396.5000	-0.10426	0.000750208	0.0861494	263.593
396.0000	-0.189897	0.00074306	0.086163	263.602
395.5000	-0.285563	0.000735063	0.0856996	263.626
395.0000	-0.171422	0.000738463	0.0854785	263.687
394.5000	0.0118362	0.000742073	0.0854575	263.779
394.0000	-0.0181675	0.000747812	0.0854415	263.893
393.5000	0.00367648	0.000748289	0.0850872	264.02
393.0000	-0.0160902	0.000738864	0.0844817	264.152
392.5000	0.0483228	0.000757147	0.0841602	264.284
392.0000	-0.00988244	0.000746775	0.0840557	264.399
391.5000	0.0804783	0.000752166	0.0841438	264.498
391.0000	0.0549256	0.000754296	0.0840055	264.578
390.5000	0.149584	0.000758915	0.0837531	264.66
390.0000	0.0144388	0.000771408	0.0836095	264.741
389.5000	-0.000431313	0.000783503	0.0838096	264.813
389.0000	0.062036	0.000784766	0.0841193	264.874
388.5000	0.0718175	0.000789991	0.084243	264.935
388.0000	0.0403002	0.000794964	0.0843164	264.998
387.5000	0.173797	0.000807137	0.0846449	265.051
387.0000	0.11289	0.000801993	0.0853856	265.097
386.5000	0.0557705	0.000794489	0.0860436	265.146
386.0000	0.0203224	0.00079061	0.0868779	265.194
385.5000	-0.0181139	0.000794497	0.0875384	265.223
385.0000	-0.0793572	0.000782989	0.0882976	265.254
384.5000	-0.359787	0.000796345	0.0891947	265.295
384.0000	-0.554339	0.000805074	0.0900802	265.324
383.5000	-0.391636	0.00081387	0.0908069	265.363
383.0000	-0.340195	0.000814974	0.0914569	265.406
382.5000	-0.25905	0.00081833	0.0921762	265.448
382.0000	-0.289989	0.000818109	0.0934062	265.497
381.5000	-0.232445	0.000808985	0.0946974	265.541
381.0000	-0.257214	0.000830918	0.0958622	265.601
380.5000	-0.261585	0.000826512	0.0968482	265.662
380.0000	-0.250283	0.00083274	0.0980132	265.717
379.5000	-0.218146	0.000836986	0.0991473	265.767
379.0000	-0.28921	0.000829695	0.099949	265.82
378.5000	-0.261846	0.000841596	0.100542	265.882
378.0000	-0.262752	0.000844509	0.101008	265.928
377.5000	-0.159023	0.0008357	0.101574	265.968
377.0000	-0.0350702	0.000836771	0.102025	265.999
376.5000	0.0213717	0.000857052	0.10269	266.026
376.0000	0.0870956	0.000844313	0.103279	266.04
375.5000	0.15944	0.000838494	0.103861	266.07
375.0000	0.155517	0.000843902	0.104231	266.073
374.5000	-0.0787127	0.000848109	0.104649	266.073
374.0000	-0.194382	0.000845594	0.105105	266.073
373.5000	-0.145728	0.000839778	0.10532	266.06
373.0000	-0.174406	0.000826279	0.105439	266.058
372.5000	-0.064569	0.000823901	0.10551	266.045
372.0000	-0.0284451	0.000820325	0.105717	266.038
371.5000	-0.0292057	0.000814358	0.105818	266.03
371.0000	-0.0539347	0.000804317	0.106334	266.043
370.5000	0.0385149	0.000818593	0.106902	266.055
370.0000	0.0860379	0.000811627	0.107111	266.051
369.5000	0.0717577	0.0008109	0.10743	266.062
369.0000	-0.0507017	0.000816706	0.107942	266.091
368.5000	-0.145576	0.000828573	0.108785	266.143
368.0000	-0.311491	0.000818005	0.109394	266.199
367.5000	-0.398888	0.00081937	0.110133	266.262
367.0000	-0.331087	0.000808792	0.110974	266.318
366.5000	-0.149944	0.000813785	0.111586	266.382
366.0000	-0.0608322	0.000812623	0.11211	266.45
365.5000	-0.135369	0.00081086	0.1126	266.516
365.0000	-0.135688	0.000821355	0.112995	266.586
364.5000	-0.0555517	0.000826745	0.113694	266.662
364.0000	-0.197427	0.000827065	0.114246	266.742
363.5000	-0.232025	0.000829708	0.115088	266.82
363.0000	-0.256073	0.000830436	0.115857	266.896
362.5000	-0.242811	0.000831411	0.116523	266.975
362.0000	-0.133837	0.00083279	0.117289	267.066
361.5000	-0.176238	0.000842446	0.118224	267.156
361.0000	-0.206168	0.000843968	0.118986	267.233
360.5000	-0.345326	0.000832811	0.11968	267.324
360.0000	-0.187853	0.000836295	0.12013	267.384
359.5000	-0.0589411	0.000836044	0.120484	267.444
359.0000	-0.0853941	0.00083058	0.120757	267.516
358.5000	-0.129238	0.00083807	0.120851	267.583
358.0000	-0.292278	0.000830153	0.121025	267.655
357.5000	-0.359447	0.000829914	0.121248	267.731
357.0000	-0.25844	0.000830495	0.121696	267.805
356.5000	-0.115241	0.000833901	0.122336	267.868
356.0000	-0.121887	0.00082986	0.122571	267.926
355.5000	0.0128048	0.000820791	0.122734	267.981
355.0000	0.0718467	0.000816605	0.122879	268.045
354.5000	0.111705	0.00082453	0.122966	268.105
354.0000	0.0628172	0.000809894	0.123188	268.167
353.5000	-0.0143243	0.000806639	0.123397	268.227
353.0000	-0.0693739	0.000804394	0.123544	268.29
352.5000	-0.00458015	0.000807295	0.123682	268.349
352.0000	0.147703	0.000804612	0.123801	268.406
351.5000	0.146659	0.000800844	0.124209	268.485
351.0000	0.119805	0.000801858	0.124589	268.532
350.5000	0.232465	0.000790861	0.125126	268.583
350.0000	0.292952	0.000791578	0.125762	268.639
349.5000	0.282717	0.000785796	0.12656	268.702
349.0000	0.321138	0.000783791	0.127448	268.765
348.5000	0.387025	0.000780552	0.128345	268.822
348.0000	0.120141	0.000769318	0.129067	268.885
347.5000	-0.0903483	0.000769525	0.129998	268.942
347.0000	-0.170745	0.000774948	0.131082	269.01
346.5000	-0.178969	0.000767738	0.132013	269.081
346.0000	-0.106636	0.000763871	0.132707	269.138
345.5000	-0.155874	0.000756423	0.133642	269.201
345.0000	-0.254641	0.000747623	0.134624	269.265
344.5000	-0.198266	0.000744883	0.135665	269.334
344.0000	-0.2079	0.000742925	0.136774	269.392
343.5000	-0.270111	0.000725933	0.13759	269.448
343.0000	-0.31046	0.000716969	0.138205	269.496
342.5000	-0.259288	0.000720046	0.138926	269.566
342.0000	-0.318958	0.000715123	0.139671	269.64
341.5000	-0.274507	0.000705754	0.140394	269.704
341.0000	-0.138814	0.0007116	0.141347	269.771
340.5000	-0.181042	0.000697804	0.141897	269.826
340.0000	-0.225756	0.000701799	0.14244	269.884
339.5000	-0.0227584	0.000699316	0.14285	269.952
339.0000	0.0611562	0.000692008	0.143449	270.013
338.5000	0.166923	0.000696439	0.144235	270.084
338.0000	0.145334	0.000696687	0.144933	270.152
337.5000	0.117191	0.000712702	0.1456	270.225
337.0000	0.318648	0.000710641	0.146064	270.289
336.5000	0.301141	0.000707251	0.146824	270.36
336.0000	0.332401	0.000708615	0.147545	270.44
335.5000	0.487638	0.000705927	0.148415	270.532
335.0000	0.41397	0.000701225	0.149141	270.611
334.5000	0.556339	0.000686612	0.149978	270.709
334.0000	0.627879	0.000672698	0.150788	270.793
333.5000	0.600697	0.000672113	0.151944	270.877
333.0000	0.636411	0.000676259	0.152896	270.973
332.5000	0.467207	0.000662901	0.153527	271.068
332.0000	0.541216	0.000658875	0.154534	271.188
331.5000	0.659906	0.000649868	0.155834	271.315
331.0000	0.565435	0.000648102	0.157194	271.444
330.5000	0.566543	0.000648437	0.158005	271.544
330.0000	0.330757	0.000624858	0.158948	271.648
329.5000	0.313906	0.000615256	0.160119	271.772
329.0000	0.303823	0.000570757	0.161188	271.898
328.5000	0.247599	0.000574092	0.162319	272.017
328.0000	0.267185	0.000570486	0.163091	272.115
327.5000	0.290088	0.000554199	0.163979	272.205
327.0000	0.208729	0.000546299	0.165094	272.292
326.5000	0.39276	0.000550355	0.166594	272.41
326.0000	0.12722	0.000548013	0.168238	272.539
325.5000	0.0329822	0.000537212	0.169773	272.678
325.0000	0.00838515	0.000523812	0.170934	272.813
324.5000	0.0863524	0.000512003	0.172347	272.958
324.0000	0.25161	0.000499166	0.174087	273.115
323.5000	0.318723	0.000493515	0.175835	273.263
323.0000	0.191403	0.000482826	0.177255	273.406
322.5000	0.214735	0.000470708	0.178598	273.546
322.0000	0.253198	0.000465322	0.180087	273.711
321.5000	0.39567	0.000462763	0.181824	273.877
321.0000	0.327685	0.000438302	0.183534	274.037
320.5000	0.307544	0.000453179	0.185366	274.203
320.0000	0.294944	0.000440474	0.186993	274.364
319.5000	0.361645	0.000432704	0.1886	274.523
319.0000	0.377691	0.000441351	0.190188	274.705
318.5000	0.310749	0.000423563	0.191865	274.903
318.0000	0.254357	0.000407102	0.193317	275.077
317.5000	0.648102	0.00040202	0.194661	275.222
317.0000	0.578611	0.000391447	0.196457	275.381
316.5000	0.562334	0.000375316	0.198295	275.53
316.0000	0.58627	0.000355978	0.200257	275.694
315.5000	0.528652	0.000348807	0.201708	275.844
315.0000	0.594207	0.00034536	0.203394	276.027
314.5000	0.584228	0.000336518	0.205097	276.211
314.0000	0.609306	0.000335277	0.20692	276.397
313.5000	0.640834	0.000326862	0.208824	276.586
313.0000	0.889862	0.000332113	0.210779	276.791
312.5000	0.984379	0.000319598	0.212586	276.993
312.0000	0.898761	0.000308863	0.214761	277.21
311.5000	0.984685	0.000297476	0.216846	277.431
311.0000	1.02273	0.000281852	0.219432	277.675
310.5000	1.01687	0.000263989	0.221826	277.942
310.0000	1.02759	0.000270089	0.224254	278.191
309.5000	1.0909	0.000257285	0.226888	278.456
309.0000	1.03331	0.000244079	0.229852	278.758
308.5000	1.02019	0.000238441	0.232623	279.071
308.0000	1.27235	0.000230528	0.235363	279.377
307.5000	1.22226	0.000220511	0.238788	279.739
307.0000	1.36484	0.000225409	0.242339	280.092
306.5000	1.5732	0.000211783	0.246168	280.473
306.0000	1.78495	0.000197677	0.250239	280.862
305.5000	1.91884	0.000175747	0.25452	281.299
305.0000	2.0895	0.000164459	0.258971	281.74
304.5000	2.05142	0.00015595	0.264068	282.228
304.0000	2.06523	0.000148366	0.269655	282.753
303.5000	2.29751	0.000144138	0.275416	283.295
303.0000	2.38868	0.00013939	0.281687	283.908
302.5000	2.53458	0.000137297	0.288184	284.548
302.0000	2.48513	0.000130515	0.295124	285.211
301.5000	2.47718	0.000120939	0.302397	285.903
301.0000	2.51109	0.000107589	0.309841	286.632
300.5000	2.63441	0.000104331	0.316639	287.302
300.0000	2.7976	8.54413E-005	0.325101	288.103
299.5000	2.91226	7.98069E-005	0.333201	288.883
299.0000	3.05806	7.77496E-005	0.341153	289.665
298.5000	3.06973	6.46011E-005	0.349353	290.483
298.0000	3.11234	4.69997E-005	0.357063	291.246
297.5000	3.15991	3.09808E-005	0.365178	292.043
297.0000	3.23959	3.06564E-005	0.37281	292.751
296.5000	3.23408	3.06986E-005	0.380072	293.445
296.0000	3.23089	3.4519E-005	0.387151	294.128
295.5000	3.2515	3.98875E-005	0.394139	294.776
295.0000	3.12452	4.84316E-005	0.400513	295.351
294.5000	3.08148	4.66485E-005	0.406867	295.936
294.0000	3.15552	4.13484E-005	0.412955	296.54
293.5000	3.24886	4.70137E-005	0.417815	297.04
293.0000	3.39961	7.34797E-005	0.422935	297.559
292.5000	3.54641	8.13415E-005	0.427726	298.068
292.0000	3.46808	0.000111795	0.431861	298.526
291.5000	3.37241	0.00012672	0.435949	298.968
291.0000	3.32121	0.000139645	0.439727	299.378
290.5000	3.26185	0.000150531	0.443659	299.798
290.0000	3.13302	0.000165212	0.447601	300.199
289.5000	3.09756	0.000194849	0.450902	300.568
289.0000	2.82929	0.000207792	0.453973	300.921
288.5000	2.72096	0.000215592	0.457258	301.307
288.0000	2.65885	0.000233133	0.460338	301.677
287.5000	2.75705	0.000252096	0.463708	302.087
287.0000	2.82736	0.000271491	0.466863	302.517
286.5000	2.87204	0.000290421	0.469674	302.933
286.0000	2.81917	0.000303147	0.47251	303.317
285.5000	2.87864	0.000333537	0.475808	303.695
285.0000	2.77813	0.000357587	0.479132	304.082
284.5000	2.57443	0.000365445	0.482152	304.44
284.0000	2.51261	0.000386577	0.485694	304.849
283.5000	2.50358	0.000408071	0.489341	305.256
283.0000	2.33885	0.000429918	0.493032	305.671
282.5000	2.17929	0.000453	0.49714	306.126
282.0000	1.98442	0.000475671	0.500997	306.589
281.5000	1.87815	0.000485669	0.504668	307.037
281.0000	1.92251	0.000495379	0.508793	307.511
280.5000	2.06662	0.000533973	0.513336	308.05
280.0000	1.99375	0.00056836	0.518115	308.61
279.5000	2.05051	0.000586693	0.523213	309.212
279.0000	1.68794	0.00060005	0.528214	309.814
278.5000	1.70031	0.000622998	0.534063	310.496
278.0000	1.45673	0.000647197	0.540995	311.248
277.5000	1.56163	0.000668089	0.547646	311.971
277.0000	1.68613	0.00069707	0.554779	312.774
276.5000	1.76104	0.000727812	0.562491	313.65
276.0000	1.70182	0.000744165	0.569975	314.49
275.5000	2.04489	0.000772204	0.579006	315.472
275.0000	2.16923	0.000794763	0.588502	316.509
274.5000	2.29155	0.000816171	0.598413	317.612
274.0000	2.50863	0.000851833	0.609273	318.848
273.5000	2.64518	0.000890425	0.620051	320.039
273.0000	2.69455	0.000927534	0.632194	321.374
272.5000	2.67871	0.000965793	0.645075	322.799
272.0000	2.5794	0.000999737	0.658453	324.299
271.5000	2.7082	0.00101632	0.673557	325.991
271.0000	2.77773	0.00105088	0.688975	327.688
270.5000	3.14222	0.00106705	0.70542	329.484
270.0000	3.48346	0.00108868	0.722341	331.373
269.5000	3.72321	0.00111248	0.740106	333.396
269.0000	3.9123	0.00114305	0.757994	335.426
268.5000	3.85029	0.00118123	0.778178	337.707
268.0000	4.2463	0.00121704	0.799355	340.099
267.5000	4.16191	0.00126255	0.821628	342.633
267.0000	4.22648	0.00130025	0.845861	345.438
266.5000	4.77978	0.00132152	0.871036	348.389
266.0000	5.03613	0.00136465	0.894915	351.153
265.5000	5.23525	0.00137105	0.921153	354.178
265.0000	5.32226	0.00138507	0.948967	357.452
264.5000	5.35523	0.00139724	0.975579	360.635
264.0000	5.79013	0.00142384	1.00241	363.87
263.5000	6.14699	0.00146644	1.03089	367.299
263.0000	6.08448	0.00146384	1.05644	370.405
262.5000	6.28637	0.00148128	1.08428	373.861
262.0000	6.34377	0.00150227	1.11014	377.145
261.5000	6.12097	0.00152227	1.13597	380.421
261.0000	6.07362	0.00150206	1.16058	383.518
260.5000	6.06617	0.00151263	1.18593	386.755
260.0000	6.9606	0.00154047	1.21082	389.98
259.5000	7.24258	0.00151323	1.23536	393.205
259.0000	7.46333	0.00151098	1.25943	396.424
258.5000	7.09489	0.00153534	1.28361	399.643
258.0000	7.33414	0.00153154	1.30756	402.857
257.5000	6.83631	0.0015049	1.33034	405.931
257.0000	6.77567	0.00154482	1.35422	409.184
256.5000	6.56818	0.00156662	1.37706	412.306
256.0000	6.73769	0.00154286	1.4014	415.633
255.5000	6.87887	0.00153271	1.42609	419.011
255.0000	6.3676	0.001505	1.45085	422.433
254.5000	6.43998	0.00152285	1.47439	425.712
254.0000	6.5209	0.00149251	1.49806	429.02
253.5000	5.86518	0.00148214	1.52469	432.7
253.0000	5.62827	0.001442	1.54841	436.031
252.5000	4.75413	0.00143425	1.58265	440.937
252.0000	4.02986	0.00138258	1.61039	444.929
251.5000	2.73384	0.00133121	1.6339	448.323
251.0000	2.56861	0.00127699	1.65704	451.639
250.5000	2.29916	0.00116835	1.67914	454.862
250.0000	1.98688	0.00112969	1.69922	457.834
249.5000	1.14819	0.00106807	1.71851	460.72
249.0000	0.729864	0.000979514	1.73797	463.649
248.5000	0.378285	0.000862507	1.75592	466.34
248.0000	-1.04746	0.000800134	1.77397	469.076
247.5000	-2.3766	0.000725012	1.79033	471.6
247.0000	-2.0559	0.000728012	1.80691	474.192
246.5000	-2.53803	0.000661891	1.82327	476.739
246.0000	-2.34226	0.000600123	1.83969	479.28
245.5000	-3.44942	0.000572776	1.85628	481.929
245.0000	-2.594	0.000511029	1.87304	484.613
244.5000	-3.64662	0.000412348	1.89003	487.333
244.0000	-3.64613	0.000391126	1.90737	490.144
243.5000	-2.97695	0.000287548	1.92449	492.948
243.0000	-3.95112	0.000273891	1.94204	495.872
242.5000	-5.00988	0.000323556	1.96251	499.302
242.0000	-5.64391	0.000212285	1.98143	502.482
241.5000	-5.97547	0.000238068	2.00367	506.231
241.0000	-6.04985	0.000129236	2.02528	509.884
240.5000	-6.57534	7.73331E-005	2.05067	514.26
240.0000	-6.25717	4.95218E-005	2.07548	518.548
239.5000	-5.33427	-7.0379E-005	2.1069	523.987
239.0000	-4.45369	-0.00017422	2.1363	529.073
238.5000	-3.63482	-0.000229999	2.16966	534.883
238.0000	-2.80009	-0.000171979	2.20714	541.51
237.5000	-1.52286	-0.000217972	2.24344	547.997
237.0000	-0.035504	-0.000363134	2.28414	555.327
236.5000	0.69884	-0.000438543	2.32753	563.21
236.0000	-0.29805	-0.000603427	2.37115	571.195
235.5000	1.22718	-0.000470685	2.42404	581.034
235.0000	0.550651	-0.000547211	2.46172	588.126
234.5000	1.68757	-0.000921109	2.50336	596.023
234.0000	3.67043	-0.0010248	2.54899	604.759
233.5000	5.02521	-0.00115711	2.60194	614.981
233.0000	5.41869	-0.00131919	2.65943	626.239
232.5000	5.10768	-0.00126372	2.71581	637.488
232.0000	8.63247	-0.00112889	2.78268	651.089
231.5000	7.50889	-0.00102349	2.83834	662.643
231.0000	8.604	-0.00104775	2.901	675.872
230.5000	7.91012	-0.000962394	2.96342	689.377
230.0000	7.27588	-0.000872933	3.02209	702.395
229.5000	5.24955	-0.00100628	3.08304	716.18
229.0000	4.4316	-0.000836524	3.14225	729.902
228.5000	5.01753	-0.000693559	3.19935	743.412
228.0000	-0.194736	-0.000830466	3.2512	755.978
227.5000	3.26897	-0.000713981	3.3023	768.797
227.0000	3.06778	-0.000555743	3.35025	781.163
226.5000	4.70435	-0.0007068	3.3968	793.532
226.0000	2.69144	-0.000341644	3.43519	804.125
225.5000	-0.927149	-0.000312893	3.47172	814.611
225.0000	-2.52193	-0.000249409	3.50375	824.35
224.5000	-1.89148	-3.805E-005	3.53134	833.262
224.0000	-0.834321	0.000328938	3.55473	841.292
223.5000	-6.94679	7.37078E-005	3.57406	848.399
223.0000	-7.08403	8.0926E-006	3.58929	854.581
222.5000	-9.06272	0.000113913	3.60196	860.863
222.0000	-6.56827	-0.000113902	3.6089	865.581
221.5000	-6.07823	-0.000199787	3.61181	869.549
221.0000	-6.9388	-0.000369821	3.61138	872.28
220.5000	-7.65838	-0.00012384	3.60853	874.477
220.0000	-6.94543	-0.000151212	3.6031	876.24

##### Extended Information
[Comments]
Sample name	JS187+JS190_5E-5_H2O_35-65
Comment
User
Division
Company	Labo systeme complexes hors equilibre

[Detailed Information]
Creation date	1/23/2024 12:28 PM

Data array type	Linear data array * 4
Horizontal axis	Wavelength [nm]
Vertical axis(1)	CD [mdeg]
Vertical axis(2)	LD [dOD]
Vertical axis(3)	Abs
Vertical axis(4)	HT [V]
Start	700 nm
End	220 nm
Data interval	0.5 nm
Data points	961     

[Measurement Information]
Instrument name	CD Jasco
Model name	J-1500
Serial No.	A005261638

Detector	PM-539
Detector S/N	A0052PM539
  Lock-in amp.	X mode
  HT volt	Auto

Detector	EXPML-535
Detector S/N	A0001
  Lock-in amp.	X mode
  HT volt	Auto

Measurement date	1/23/2024 12:28 PM

Overload detect	1
Photometric mode	CD, LD, Abs, HT
Measure range	700 - 220 nm
Data pitch	0.5 nm
CD scale	200 mdeg/1.0 dOD
FL scale	200 mdeg/1.0 dOD
D.I.T.	1 sec
Bandwidth	1.00 nm
Start mode	Immediately
Scanning speed	500 nm/min
Baseline correction	Baseline
Shutter control	Auto


