TITLE	JS187+JS190_5E-5_H2O_65-35
DATA TYPE	
ORIGIN	JASCO
OWNER	
DATE	24/01/23
TIME	10:58:26
SPECTROMETER/DATA SYSTEM	
LOCALE	1033
RESOLUTION	
DELTAX	-0.5
XUNITS	NANOMETERS
YUNITS	CD [mdeg]
Y2UNITS	LD [dOD]
Y3UNITS	ABSORBANCE
Y4UNITS	HT [V]
FIRSTX	  700.0000
LASTX	  220.0000
NPOINTS	     961
FIRSTY	     1.03229
MAXY	     9.76281
MINY	   -17.18811
XYDATA
700.0000	1.03229	0.000108662	-0.0592054	298.725
699.5000	0.946012	0.000114646	-0.0603248	298.418
699.0000	0.762283	0.000106149	-0.0615241	298.058
698.5000	0.935125	0.000120199	-0.0623568	297.65
698.0000	0.866466	0.000118417	-0.0636542	297.2
697.5000	0.773178	0.000141832	-0.0653903	296.733
697.0000	0.542407	0.000158727	-0.0674916	296.215
696.5000	0.534279	0.000167289	-0.0687065	295.698
696.0000	0.487684	0.000166747	-0.0689606	295.155
695.5000	0.587359	0.000158308	-0.0690767	294.627
695.0000	0.740059	0.000164375	-0.0685631	294.159
694.5000	0.444887	0.000164554	-0.0679151	293.724
694.0000	0.668106	0.000151387	-0.0659863	293.332
693.5000	0.679028	0.000169395	-0.0638146	292.968
693.0000	0.641705	0.00016558	-0.0610223	292.659
692.5000	0.383182	0.000154071	-0.0580668	292.389
692.0000	0.335471	0.000178251	-0.0551063	292.159
691.5000	0.444319	0.000157274	-0.0520813	291.944
691.0000	0.575473	0.000152797	-0.049227	291.732
690.5000	0.413614	0.00014861	-0.0472219	291.544
690.0000	0.416658	0.000147103	-0.0455035	291.377
689.5000	0.467736	0.000145902	-0.0432705	291.28
689.0000	0.384912	0.000140178	-0.0401756	291.246
688.5000	0.391915	0.000134782	-0.0368089	291.316
688.0000	0.19853	0.000154492	-0.0326384	291.487
687.5000	-0.0256763	0.000156823	-0.0282845	291.723
687.0000	-0.185286	0.000162976	-0.0246412	291.97
686.5000	-0.282738	0.000146214	-0.0220107	292.213
686.0000	-0.39155	0.000137281	-0.0207874	292.456
685.5000	-0.400723	0.000149842	-0.0206509	292.7
685.0000	-0.637626	0.000145483	-0.0209336	292.94
684.5000	-0.671938	0.000143179	-0.0219252	293.158
684.0000	-0.520568	0.000148576	-0.0234966	293.358
683.5000	-0.557132	0.000142679	-0.0245582	293.568
683.0000	-0.662387	0.000153393	-0.0254394	293.808
682.5000	-0.915706	0.000135717	-0.0256056	294.07
682.0000	-0.369371	0.000140109	-0.0257553	294.371
681.5000	-0.505551	0.000132101	-0.025594	294.653
681.0000	-0.487496	0.000116952	-0.0258152	294.913
680.5000	-0.147834	0.000137398	-0.0263463	295.12
680.0000	-0.318093	0.000112618	-0.0286231	295.233
679.5000	-0.1673	0.000103225	-0.0314173	295.291
679.0000	-0.104239	9.91896E-005	-0.0350874	295.312
678.5000	0.152959	0.000107654	-0.0375817	295.31
678.0000	0.251941	0.000121193	-0.0398779	295.288
677.5000	0.449989	0.000125286	-0.0412976	295.257
677.0000	0.342805	0.000133623	-0.0417945	295.242
676.5000	0.623745	0.000138255	-0.0415295	295.227
676.0000	0.622623	0.000137169	-0.0411908	295.217
675.5000	0.703949	0.000125526	-0.0407681	295.213
675.0000	0.734714	0.00013008	-0.0400681	295.222
674.5000	0.798322	0.000144661	-0.0391261	295.223
674.0000	0.558126	0.00015781	-0.0381514	295.229
673.5000	0.564366	0.00015596	-0.0370542	295.247
673.0000	0.542562	0.000160106	-0.0367853	295.281
672.5000	0.674142	0.000160195	-0.0365003	295.327
672.0000	0.739387	0.000175913	-0.0359531	295.374
671.5000	0.571537	0.000190736	-0.0348442	295.432
671.0000	0.382595	0.000186401	-0.03373	295.493
670.5000	0.301615	0.000187561	-0.0323873	295.558
670.0000	0.182425	0.000196185	-0.031067	295.644
669.5000	0.202787	0.000205244	-0.0302682	295.733
669.0000	0.288033	0.000199389	-0.0295136	295.817
668.5000	0.464106	0.000180787	-0.0288421	295.897
668.0000	0.444385	0.00016703	-0.0282852	295.998
667.5000	0.258954	0.000178043	-0.0277788	296.111
667.0000	0.233858	0.000195264	-0.0276077	296.219
666.5000	0.204988	0.000187896	-0.0273463	296.335
666.0000	0.31084	0.000198779	-0.0276739	296.47
665.5000	0.37525	0.000179803	-0.0276279	296.601
665.0000	0.325252	0.000179912	-0.0267982	296.73
664.5000	0.477229	0.000179535	-0.02578	296.848
664.0000	0.213599	0.000170332	-0.0255436	296.957
663.5000	0.279243	0.000160891	-0.0263477	297.061
663.0000	0.466228	0.000150232	-0.0264294	297.153
662.5000	0.655383	0.000183244	-0.0266971	297.232
662.0000	0.705609	0.000169916	-0.0270544	297.299
661.5000	0.516939	0.000166764	-0.0269549	297.346
661.0000	0.411079	0.000158245	-0.0271999	297.387
660.5000	0.298456	0.000188195	-0.0276608	297.416
660.0000	0.481795	0.00019738	-0.0277682	297.444
659.5000	0.540017	0.000214106	-0.0284121	297.453
659.0000	0.695201	0.000198801	-0.0288168	297.448
658.5000	0.612432	0.000204068	-0.0291864	297.414
658.0000	0.529238	0.000197333	-0.0292232	297.36
657.5000	0.717932	0.000200243	-0.0298587	297.284
657.0000	0.465796	0.0002035	-0.0295445	297.195
656.5000	0.334587	0.000217627	-0.0304833	297.071
656.0000	0.67755	0.000216457	-0.0312246	296.942
655.5000	0.943965	0.00020972	-0.0305584	296.796
655.0000	0.890638	0.000215922	-0.0304597	296.647
654.5000	0.801316	0.000214227	-0.0307748	296.508
654.0000	0.715384	0.000219262	-0.0301871	296.377
653.5000	0.75376	0.000217872	-0.0289075	296.254
653.0000	1.03599	0.0002087	-0.0272249	296.148
652.5000	1.08149	0.000217493	-0.0253854	296.084
652.0000	1.29838	0.000212231	-0.0233419	296.047
651.5000	0.975051	0.000209956	-0.0208237	296.038
651.0000	0.906714	0.000209247	-0.0178322	296.056
650.5000	1.10839	0.000224348	-0.0156318	296.097
650.0000	1.1666	0.000214069	-0.0128809	296.173
649.5000	1.15105	0.00022924	-0.0106995	296.271
649.0000	1.22212	0.000235317	-0.00834564	296.384
648.5000	1.5102	0.000222034	-0.00681858	296.529
648.0000	1.56351	0.000226838	-0.00489784	296.701
647.5000	1.23924	0.00023236	-0.00321349	296.877
647.0000	1.08423	0.000232645	-0.00211038	297.071
646.5000	1.13017	0.000222378	-0.00129032	297.258
646.0000	1.36435	0.000217167	0.0002876	297.435
645.5000	1.38652	0.000225075	0.00104046	297.607
645.0000	1.13081	0.000231016	0.000545158	297.757
644.5000	1.11087	0.000256511	0.000265022	297.879
644.0000	1.11126	0.000255875	-0.000101593	297.957
643.5000	1.05502	0.000237784	-0.000788723	298.017
643.0000	1.24983	0.000236588	-0.00148743	298.047
642.5000	1.27377	0.000240852	-0.00201101	298.065
642.0000	1.25029	0.000254372	-0.0022884	298.07
641.5000	1.36209	0.00024525	-0.00261566	298.062
641.0000	1.34621	0.000240251	-0.0026198	298.039
640.5000	1.33377	0.000259935	-0.00224174	298.001
640.0000	1.33339	0.000272046	-0.00173553	297.942
639.5000	1.44549	0.000257238	-0.000961152	297.866
639.0000	1.42579	0.000263137	-0.000252618	297.8
638.5000	1.50957	0.000254806	0.00090778	297.723
638.0000	1.45394	0.000276781	0.00148386	297.645
637.5000	1.37406	0.00028572	0.00183707	297.563
637.0000	1.48693	0.000302066	0.00313369	297.487
636.5000	1.47759	0.000275176	0.00415927	297.413
636.0000	1.50571	0.000256336	0.00456379	297.347
635.5000	1.65913	0.000257378	0.0052008	297.295
635.0000	1.5252	0.000272549	0.00635481	297.256
634.5000	1.35275	0.000256107	0.00731758	297.212
634.0000	1.28037	0.000252315	0.00814442	297.168
633.5000	1.18811	0.00025544	0.00842563	297.11
633.0000	1.03551	0.000256277	0.00930815	297.062
632.5000	0.747966	0.000255608	0.00957804	297.018
632.0000	0.812359	0.000256645	0.00995305	296.984
631.5000	0.87142	0.000263076	0.0106327	296.951
631.0000	0.911064	0.00028516	0.0111536	296.908
630.5000	0.895312	0.000278579	0.0115779	296.857
630.0000	0.900575	0.000279613	0.0121858	296.816
629.5000	1.06771	0.000270597	0.0127426	296.757
629.0000	1.1312	0.000290839	0.0132397	296.715
628.5000	0.93301	0.000281932	0.013504	296.67
628.0000	0.882009	0.000288346	0.014076	296.628
627.5000	0.798011	0.000320982	0.0149366	296.58
627.0000	0.421259	0.000304235	0.015187	296.524
626.5000	0.556192	0.000302947	0.0151214	296.468
626.0000	0.623525	0.000306518	0.0152897	296.425
625.5000	0.583784	0.000311696	0.0160302	296.377
625.0000	0.585087	0.000303692	0.0170737	296.352
624.5000	0.684242	0.000288782	0.018015	296.319
624.0000	0.806492	0.000300287	0.0189341	296.305
623.5000	0.568228	0.000280681	0.0199171	296.301
623.0000	0.402306	0.000285773	0.0208742	296.311
622.5000	0.313355	0.000289912	0.0220793	296.341
622.0000	0.142337	0.000293537	0.0230547	296.385
621.5000	0.161417	0.000296296	0.0239831	296.432
621.0000	0.0851872	0.000297415	0.025034	296.495
620.5000	0.0592131	0.000282592	0.0255578	296.544
620.0000	0.215713	0.000278587	0.0260973	296.617
619.5000	0.289063	0.000268587	0.0270242	296.717
619.0000	0.348254	0.000252989	0.028369	296.83
618.5000	0.685304	0.000269128	0.0302086	296.966
618.0000	0.401059	0.000270381	0.0319353	297.092
617.5000	0.504525	0.000274565	0.0326938	297.23
617.0000	0.340919	0.00028359	0.0331207	297.368
616.5000	0.557893	0.000298417	0.0335613	297.503
616.0000	0.760589	0.000304939	0.0344669	297.639
615.5000	0.916063	0.000309524	0.0350153	297.778
615.0000	1.28628	0.000315162	0.0354163	297.913
614.5000	1.33958	0.00032831	0.0356313	298.047
614.0000	1.32834	0.000319868	0.0358697	298.179
613.5000	1.39119	0.000319899	0.0363154	298.31
613.0000	1.20844	0.00032203	0.0367034	298.451
612.5000	1.21872	0.000328234	0.0372806	298.6
612.0000	1.30268	0.00033869	0.0378902	298.741
611.5000	1.16366	0.000347979	0.0386357	298.865
611.0000	1.09252	0.000351279	0.0389591	298.998
610.5000	1.0674	0.000346841	0.0391286	299.124
610.0000	1.0752	0.00033671	0.0391753	299.245
609.5000	0.901146	0.000345163	0.0398084	299.361
609.0000	0.854749	0.000344346	0.0404707	299.476
608.5000	0.798396	0.000347299	0.0414932	299.59
608.0000	0.466682	0.000340271	0.042111	299.696
607.5000	0.294003	0.000322325	0.0421354	299.785
607.0000	0.353435	0.000327569	0.0426246	299.883
606.5000	0.164626	0.00032334	0.0433136	299.988
606.0000	0.257721	0.000342667	0.0444361	300.066
605.5000	-0.0388669	0.000347987	0.0454207	300.161
605.0000	-0.0429967	0.00035499	0.0467691	300.257
604.5000	0.0878325	0.000365725	0.0477253	300.337
604.0000	-0.0899559	0.000377484	0.0489602	300.416
603.5000	-0.306625	0.000379323	0.0504462	300.503
603.0000	-0.126085	0.000376423	0.0513346	300.572
602.5000	-0.183238	0.000353699	0.0526829	300.639
602.0000	0.163202	0.000365297	0.0543075	300.716
601.5000	0.104082	0.000358714	0.0556915	300.782
601.0000	0.301207	0.000358308	0.0570691	300.847
600.5000	0.399657	0.000361598	0.0589262	300.905
600.0000	0.486212	0.000367982	0.0605239	300.962
599.5000	0.674245	0.000385816	0.063032	301.021
599.0000	0.561441	0.000397181	0.06505	301.068
598.5000	0.364456	0.000396343	0.0676028	301.108
598.0000	0.306289	0.000392443	0.0697844	301.152
597.5000	0.440857	0.000399904	0.0718837	301.206
597.0000	0.410053	0.000400737	0.0742492	301.257
596.5000	0.283677	0.000378997	0.0765552	301.278
596.0000	0.337466	0.000397538	0.0791113	301.316
595.5000	0.496469	0.000390254	0.0814546	301.35
595.0000	0.550193	0.000386598	0.0840328	301.368
594.5000	0.48896	0.000392221	0.0868804	301.412
594.0000	0.649643	0.000418233	0.0891888	301.456
593.5000	0.670139	0.000433069	0.0921015	301.503
593.0000	0.81019	0.000441788	0.0956373	301.577
592.5000	1.11192	0.000450086	0.0986987	301.672
592.0000	0.91826	0.000443673	0.101602	301.774
591.5000	0.757315	0.00042994	0.104161	301.872
591.0000	0.808087	0.000438942	0.107364	301.987
590.5000	0.908882	0.00042643	0.110509	302.136
590.0000	1.15802	0.000428939	0.113947	302.305
589.5000	1.14547	0.000420482	0.117649	302.484
589.0000	1.11831	0.000426476	0.121307	302.664
588.5000	1.27984	0.000432911	0.125119	302.883
588.0000	1.19894	0.000426965	0.129385	303.13
587.5000	1.22481	0.000435093	0.133768	303.405
587.0000	1.335	0.000441823	0.138348	303.735
586.5000	1.18351	0.000450393	0.142782	304.06
586.0000	0.971998	0.000450296	0.147983	304.409
585.5000	0.898634	0.000450335	0.152857	304.778
585.0000	0.906288	0.000451978	0.157688	305.16
584.5000	0.790589	0.000466734	0.162352	305.526
584.0000	0.736012	0.000463273	0.167822	305.947
583.5000	0.845477	0.000476359	0.17379	306.413
583.0000	0.717807	0.000473273	0.18034	306.914
582.5000	0.950607	0.000482454	0.186932	307.459
582.0000	0.638282	0.000487738	0.193665	308.015
581.5000	0.592022	0.000528247	0.200766	308.612
581.0000	0.786987	0.00053732	0.208449	309.241
580.5000	1.1604	0.000547968	0.216421	309.905
580.0000	1.39132	0.000549059	0.224294	310.579
579.5000	1.42887	0.000564314	0.232414	311.293
579.0000	1.60019	0.000575916	0.240716	312.015
578.5000	1.74834	0.00057273	0.249813	312.775
578.0000	2.13785	0.000582402	0.259057	313.581
577.5000	2.42201	0.000592015	0.268533	314.468
577.0000	2.65841	0.000617483	0.278858	315.354
576.5000	2.83529	0.000643145	0.29037	316.353
576.0000	2.98356	0.000649177	0.301636	317.337
575.5000	3.11145	0.000673732	0.313774	318.395
575.0000	3.46767	0.000706689	0.324716	319.393
574.5000	3.47638	0.000743225	0.337089	320.505
574.0000	3.98765	0.000749448	0.349634	321.608
573.5000	4.30568	0.000772146	0.362439	322.752
573.0000	4.57094	0.000754221	0.375752	323.997
572.5000	4.8766	0.000773527	0.3885	325.198
572.0000	5.18309	0.000791566	0.403021	326.588
571.5000	5.33532	0.000799771	0.417536	327.958
571.0000	5.56582	0.000834766	0.433567	329.427
570.5000	5.81965	0.000866116	0.449611	330.958
570.0000	5.98523	0.000885869	0.465149	332.455
569.5000	6.00942	0.000891594	0.482255	334.054
569.0000	6.1695	0.000917313	0.499329	335.651
568.5000	6.19733	0.000936646	0.515192	337.198
568.0000	6.80869	0.000922297	0.53138	338.812
567.5000	7.06797	0.000938849	0.547768	340.445
567.0000	7.10611	0.000912393	0.564103	342.04
566.5000	7.23385	0.000902199	0.580265	343.604
566.0000	7.46928	0.000910704	0.596157	345.145
565.5000	7.76343	0.00092026	0.611606	346.681
565.0000	8.01014	0.000934952	0.626893	348.169
564.5000	8.2996	0.000940964	0.642066	349.643
564.0000	8.11931	0.000937858	0.656249	350.988
563.5000	8.25668	0.000944582	0.669488	352.271
563.0000	8.18826	0.000949538	0.682646	353.579
562.5000	8.08564	0.000933364	0.694792	354.761
562.0000	8.28129	0.0009579	0.706459	355.888
561.5000	8.03919	0.000928556	0.718937	357.053
561.0000	8.31373	0.000951928	0.730224	358.135
560.5000	8.42371	0.000947869	0.740677	359.142
560.0000	8.12954	0.000950237	0.750682	360.072
559.5000	8.07126	0.00095439	0.760094	360.892
559.0000	7.85702	0.000971437	0.767923	361.566
558.5000	7.58933	0.000980184	0.774443	362.138
558.0000	7.45026	0.000964023	0.779778	362.592
557.5000	7.15792	0.000963373	0.78489	362.986
557.0000	7.0349	0.000952117	0.789245	363.282
556.5000	6.68707	0.000946359	0.792367	363.494
556.0000	6.78121	0.00094573	0.79421	363.623
555.5000	6.46812	0.000933178	0.795691	363.674
555.0000	6.50402	0.000906207	0.796547	363.635
554.5000	6.34994	0.000911	0.796937	363.502
554.0000	6.23175	0.000890421	0.796092	363.296
553.5000	5.91194	0.000891436	0.794656	363.023
553.0000	5.65904	0.000908189	0.792737	362.708
552.5000	5.29234	0.000882476	0.79085	362.342
552.0000	5.52081	0.000854772	0.788262	361.893
551.5000	4.96791	0.000845744	0.785545	361.444
551.0000	5.14655	0.000831629	0.782069	360.957
550.5000	5.10708	0.000807823	0.778336	360.425
550.0000	5.04974	0.000840561	0.774621	359.867
549.5000	5.1887	0.000839337	0.771151	359.315
549.0000	5.30609	0.000849394	0.766995	358.754
548.5000	5.33094	0.000850137	0.7629	358.212
548.0000	4.97599	0.000843714	0.759795	357.65
547.5000	4.7252	0.000864872	0.756906	357.138
547.0000	4.86875	0.000893729	0.754078	356.61
546.5000	4.8386	0.000901318	0.751281	356.155
546.0000	4.89871	0.000907008	0.748137	355.737
545.5000	5.12971	0.000917433	0.746217	355.337
545.0000	5.16321	0.00089768	0.744747	355.035
544.5000	5.34235	0.000900031	0.743473	354.742
544.0000	5.7933	0.000934486	0.742303	354.509
543.5000	5.74096	0.000954913	0.741771	354.332
543.0000	5.73194	0.00096491	0.741796	354.198
542.5000	5.78333	0.00095285	0.742614	354.12
542.0000	5.91869	0.000987246	0.743561	354.091
541.5000	6.02458	0.000970486	0.744893	354.124
541.0000	6.14063	0.000965053	0.746514	354.213
540.5000	6.1359	0.000948926	0.749311	354.351
540.0000	6.23259	0.000926499	0.752776	354.546
539.5000	6.29971	0.000929519	0.756282	354.801
539.0000	6.36275	0.000947204	0.760191	355.136
538.5000	6.18687	0.000911632	0.764798	355.527
538.0000	6.3435	0.000929588	0.769958	355.932
537.5000	5.9909	0.000925148	0.77567	356.409
537.0000	6.29729	0.000938775	0.781789	356.955
536.5000	6.69099	0.000952187	0.788224	357.52
536.0000	6.63997	0.000947168	0.795551	358.164
535.5000	7.14568	0.000960997	0.803001	358.832
535.0000	7.50585	0.00097237	0.811329	359.578
534.5000	7.35858	0.000990378	0.819324	360.301
534.0000	7.76894	0.00101702	0.827929	361.097
533.5000	7.88872	0.00103455	0.836743	361.94
533.0000	7.86583	0.00103548	0.845171	362.755
532.5000	8.09237	0.00105722	0.854032	363.625
532.0000	8.19341	0.00109628	0.863592	364.56
531.5000	8.46529	0.0011185	0.873539	365.524
531.0000	8.64724	0.00112725	0.884495	366.535
530.5000	8.81165	0.00112878	0.894672	367.505
530.0000	9.04207	0.00110841	0.905311	368.548
529.5000	9.63446	0.00112999	0.915678	369.563
529.0000	9.76281	0.00114347	0.925713	370.512
528.5000	9.64886	0.00114893	0.935558	371.466
528.0000	9.72074	0.00116315	0.944951	372.375
527.5000	9.06641	0.00112523	0.954882	373.317
527.0000	8.78946	0.00114278	0.965421	374.315
526.5000	8.73668	0.00113126	0.975144	375.263
526.0000	8.68886	0.00112649	0.985348	376.231
525.5000	8.3541	0.00110689	0.995394	377.182
525.0000	7.97919	0.00111788	1.00509	378.099
524.5000	7.92314	0.00109984	1.01406	378.923
524.0000	7.6471	0.00109354	1.02222	379.662
523.5000	7.16053	0.00108665	1.03025	380.424
523.0000	6.84611	0.001065	1.03792	381.147
522.5000	6.63006	0.00106566	1.04478	381.807
522.0000	6.58425	0.00104311	1.05203	382.482
521.5000	5.91391	0.00104075	1.05914	383.115
521.0000	5.26549	0.00103221	1.06562	383.7
520.5000	5.20554	0.0010297	1.0718	384.251
520.0000	4.71279	0.000996421	1.07717	384.723
519.5000	4.70736	0.000996156	1.08272	385.182
519.0000	4.28537	0.00099222	1.0876	385.596
518.5000	4.10687	0.000990933	1.09179	385.967
518.0000	3.63637	0.000994077	1.09645	386.354
517.5000	3.45407	0.000989351	1.101	386.719
517.0000	3.25844	0.000992723	1.10558	387.06
516.5000	3.33609	0.000980515	1.10998	387.376
516.0000	2.32315	0.000978255	1.11409	387.684
515.5000	2.72851	0.000971967	1.11767	387.984
515.0000	1.95476	0.000954768	1.1209	388.233
514.5000	1.85467	0.000948441	1.12414	388.497
514.0000	1.62149	0.000980207	1.12705	388.713
513.5000	1.50234	0.000983279	1.1302	388.946
513.0000	1.14579	0.000959223	1.13293	389.173
512.5000	1.39264	0.000951626	1.13607	389.419
512.0000	1.21071	0.000988737	1.13912	389.647
511.5000	1.43302	0.00100477	1.14179	389.874
511.0000	1.30688	0.00102812	1.14455	390.092
510.5000	1.48305	0.00100642	1.14746	390.298
510.0000	1.43643	0.000995075	1.15034	390.505
509.5000	1.19722	0.000974288	1.15297	390.7
509.0000	1.19969	0.000995216	1.15539	390.886
508.5000	0.876119	0.0010073	1.15765	391.041
508.0000	1.27782	0.00101169	1.16019	391.191
507.5000	1.26815	0.0010204	1.16283	391.343
507.0000	0.689354	0.00101344	1.16549	391.492
506.5000	1.071	0.00102522	1.16814	391.644
506.0000	1.05649	0.000996659	1.17022	391.777
505.5000	0.806112	0.000966125	1.17231	391.91
505.0000	0.989024	0.000960676	1.1745	392.046
504.5000	0.640789	0.00094712	1.17684	392.183
504.0000	0.164575	0.000903901	1.17885	392.29
503.5000	-0.458022	0.000859012	1.18071	392.385
503.0000	-0.862786	0.000815139	1.18247	392.449
502.5000	-0.867284	0.000819871	1.18388	392.495
502.0000	-0.900711	0.000847582	1.1852	392.537
501.5000	-1.40403	0.000815783	1.18633	392.536
501.0000	-1.62202	0.000791879	1.18742	392.516
500.5000	-1.69585	0.000781004	1.18854	392.471
500.0000	-2.37823	0.000731691	1.1892	392.354
499.5000	-2.93901	0.000710387	1.18903	392.166
499.0000	-2.8749	0.000658816	1.18823	391.825
498.5000	-2.77232	0.000668753	1.18716	391.363
498.0000	-3.14448	0.000617878	1.18568	390.754
497.5000	-3.67517	0.000603565	1.18443	389.992
497.0000	-3.62505	0.000604527	1.18395	389.214
496.5000	-4.22306	0.000620402	1.18455	388.485
496.0000	-4.09046	0.000638116	1.18646	387.969
495.5000	-4.15843	0.000669275	1.18848	387.612
495.0000	-4.38835	0.000654864	1.18909	387.33
494.5000	-4.96698	0.000648839	1.18885	387.067
494.0000	-5.34772	0.000641272	1.18807	386.793
493.5000	-5.82416	0.000617946	1.18711	386.495
493.0000	-5.81565	0.000599745	1.18622	386.221
492.5000	-5.91374	0.00059148	1.18525	385.938
492.0000	-6.34491	0.000567404	1.18392	385.632
491.5000	-6.44897	0.000557441	1.1825	385.364
491.0000	-6.61275	0.000626087	1.18129	385.121
490.5000	-6.9898	0.000611639	1.17996	384.906
490.0000	-7.78124	0.000617433	1.17842	384.723
489.5000	-8.20245	0.000639565	1.17657	384.571
489.0000	-8.58505	0.000606341	1.17407	384.377
488.5000	-8.7013	0.000580041	1.17013	384.032
488.0000	-8.96319	0.000580615	1.16443	383.406
487.5000	-9.30613	0.000583636	1.15835	382.559
487.0000	-9.24697	0.000593391	1.15351	381.64
486.5000	-9.63466	0.00058216	1.14831	380.548
486.0000	-9.724	0.000548281	1.14377	379.478
485.5000	-9.80248	0.000553389	1.141	378.488
485.0000	-10.0713	0.000573177	1.13906	377.595
484.5000	-10.5394	0.000560911	1.13643	376.822
484.0000	-10.9029	0.000549571	1.13287	376.09
483.5000	-11.1561	0.000527603	1.12915	375.436
483.0000	-11.2771	0.000495861	1.12448	374.766
482.5000	-11.1254	0.000466313	1.11967	374.175
482.0000	-11.0916	0.00045357	1.11463	373.622
481.5000	-11.1555	0.000453201	1.10955	373.064
481.0000	-11.0986	0.000426235	1.10474	372.543
480.5000	-11.1294	0.000428053	1.09966	372.042
480.0000	-11.1753	0.000444572	1.09401	371.523
479.5000	-11.672	0.000413881	1.08773	370.944
479.0000	-12.0366	0.000371111	1.07872	370.092
478.5000	-12.1707	0.000354506	1.06921	368.991
478.0000	-12.0793	0.000335936	1.06197	367.765
477.5000	-12.2669	0.000337641	1.05896	366.837
477.0000	-12.717	0.000320809	1.05551	366.055
476.5000	-12.6913	0.00031881	1.04702	365.003
476.0000	-12.4973	0.000322414	1.03691	363.711
475.5000	-12.6428	0.000305314	1.02661	362.184
475.0000	-12.8781	0.000311745	1.01649	360.458
474.5000	-12.8843	0.000332843	1.00755	358.674
474.0000	-13.4871	0.00031701	0.999026	356.752
473.5000	-13.8784	0.000314323	0.98964	354.557
473.0000	-13.8199	0.000329396	0.98045	352.223
472.5000	-14.1571	0.000339214	0.973335	349.883
472.0000	-14.4396	0.000350715	0.969716	348.006
471.5000	-14.3961	0.000350502	0.966738	346.482
471.0000	-14.0385	0.00036251	0.964271	345.556
470.5000	-14.2037	0.000377792	0.96208	344.976
470.0000	-14.1469	0.000370045	0.95846	344.642
469.5000	-14.2825	0.00037436	0.950295	344.142
469.0000	-14.2554	0.000372645	0.936616	343.103
468.5000	-14.2093	0.000364515	0.923922	341.748
468.0000	-14.3941	0.000354722	0.914856	340.43
467.5000	-14.5096	0.0003363	0.90836	339.351
467.0000	-14.3659	0.000326834	0.903501	338.545
466.5000	-14.4142	0.000343969	0.898999	337.952
466.0000	-14.3393	0.000343713	0.893532	337.537
465.5000	-13.8945	0.000354264	0.887566	337.332
465.0000	-14.103	0.000367174	0.880885	337.375
464.5000	-13.9735	0.000370262	0.871686	337.472
464.0000	-14.1071	0.000352518	0.858796	337.265
463.5000	-14.2126	0.000345449	0.844268	336.676
463.0000	-14.1535	0.000361716	0.830717	335.806
462.5000	-14.1843	0.000352543	0.819339	334.829
462.0000	-14.2955	0.000348394	0.809586	333.847
461.5000	-14.1477	0.000341234	0.801042	333.015
461.0000	-13.8416	0.000344075	0.792683	332.319
460.5000	-13.8688	0.000355197	0.783797	331.731
460.0000	-13.7653	0.000351844	0.77492	331.233
459.5000	-13.8064	0.000353053	0.765296	330.755
459.0000	-13.7561	0.000374685	0.753883	330.143
458.5000	-13.6604	0.000360333	0.741971	329.438
458.0000	-13.5201	0.000347866	0.729232	328.539
457.5000	-13.4081	0.000345544	0.716402	327.418
457.0000	-13.2264	0.00033627	0.704522	326.156
456.5000	-13.1434	0.00031659	0.694998	325.006
456.0000	-12.8692	0.000328932	0.684442	323.873
455.5000	-12.8617	0.000330226	0.670912	322.47
455.0000	-12.9418	0.000327655	0.658942	321.039
454.5000	-12.9531	0.000313227	0.650402	319.814
454.0000	-12.462	0.000347334	0.642482	318.83
453.5000	-12.0367	0.000369988	0.632512	317.958
453.0000	-11.9015	0.000394016	0.621885	317.096
452.5000	-11.8973	0.000402948	0.61151	316.214
452.0000	-11.6469	0.000428271	0.601213	315.278
451.5000	-11.4739	0.000425674	0.590425	314.299
451.0000	-11.0386	0.000433904	0.58021	313.37
450.5000	-10.7007	0.000431715	0.569679	312.395
450.0000	-10.5396	0.000467849	0.560381	311.491
449.5000	-10.4281	0.000469303	0.552456	310.758
449.0000	-10.3126	0.0004682	0.54501	310.198
448.5000	-10.5554	0.000485649	0.535078	309.549
448.0000	-10.1527	0.000518161	0.524752	308.801
447.5000	-9.85792	0.000526638	0.517156	308.185
447.0000	-9.65364	0.00052885	0.511769	307.846
446.5000	-9.4025	0.000550499	0.504634	307.565
446.0000	-9.04574	0.000549741	0.493232	307.007
445.5000	-9.12455	0.000549731	0.481926	306.184
445.0000	-9.18224	0.000539732	0.472385	305.252
444.5000	-9.14184	0.000523692	0.463273	304.284
444.0000	-8.85103	0.000513123	0.454526	303.326
443.5000	-8.63175	0.000523104	0.445816	302.303
443.0000	-8.71303	0.000540873	0.438739	301.424
442.5000	-8.55566	0.000564905	0.432017	300.589
442.0000	-8.53066	0.000562717	0.425861	299.883
441.5000	-8.40956	0.000563909	0.418845	299.128
441.0000	-8.31937	0.000571286	0.412238	298.43
440.5000	-8.45831	0.000567737	0.405681	297.741
440.0000	-8.08413	0.000566389	0.398703	297.018
439.5000	-7.88574	0.000547727	0.391552	296.287
439.0000	-7.61269	0.000563471	0.383862	295.512
438.5000	-7.36612	0.000558728	0.375678	294.715
438.0000	-7.40721	0.000558824	0.36758	293.946
437.5000	-7.12779	0.000548682	0.36005	293.223
437.0000	-6.88016	0.000551093	0.352163	292.485
436.5000	-6.57875	0.000556393	0.34592	291.868
436.0000	-6.3969	0.000576993	0.340056	291.304
435.5000	-6.34668	0.000582707	0.333776	290.767
435.0000	-6.275	0.000584923	0.326927	290.216
434.5000	-6.17482	0.000583722	0.320043	289.664
434.0000	-6.25585	0.000577125	0.313208	289.084
433.5000	-6.0244	0.000588118	0.306822	288.517
433.0000	-5.77829	0.000589646	0.300522	287.907
432.5000	-5.57998	0.000595746	0.29459	287.325
432.0000	-5.36624	0.000587125	0.288227	286.711
431.5000	-5.40626	0.000576736	0.281999	286.098
431.0000	-5.15615	0.000572469	0.276088	285.502
430.5000	-5.04547	0.000585989	0.270373	284.913
430.0000	-4.92345	0.0005869	0.265051	284.347
429.5000	-4.78467	0.000584219	0.259391	283.756
429.0000	-4.56605	0.000591231	0.253786	283.164
428.5000	-4.50193	0.000589957	0.248171	282.581
428.0000	-4.48968	0.000584893	0.242085	281.982
427.5000	-4.39711	0.000577708	0.237074	281.46
427.0000	-4.36008	0.000582391	0.23214	280.934
426.5000	-4.24657	0.000591852	0.227272	280.406
426.0000	-4.05868	0.000601944	0.222111	279.834
425.5000	-3.8962	0.000601724	0.21729	279.253
425.0000	-3.97759	0.000602435	0.212312	278.65
424.5000	-3.73903	0.000613073	0.20748	278.028
424.0000	-3.59073	0.000627339	0.203201	277.439
423.5000	-3.4858	0.000627353	0.199688	276.922
423.0000	-3.39613	0.000629622	0.19581	276.438
422.5000	-3.49744	0.000620379	0.191757	275.997
422.0000	-3.41416	0.000629157	0.187563	275.573
421.5000	-3.24603	0.00063448	0.18353	275.172
421.0000	-3.02835	0.000637346	0.179921	274.805
420.5000	-2.98699	0.000650392	0.176061	274.419
420.0000	-2.8235	0.00065141	0.172244	274.023
419.5000	-2.6776	0.000656634	0.168399	273.606
419.0000	-2.67881	0.000644279	0.1648	273.222
418.5000	-2.63484	0.000628822	0.161389	272.891
418.0000	-2.73217	0.0006221	0.158286	272.564
417.5000	-2.64563	0.00062864	0.15512	272.251
417.0000	-2.66501	0.000626091	0.152347	271.959
416.5000	-2.42357	0.000615806	0.14978	271.721
416.0000	-2.36439	0.000606539	0.146924	271.521
415.5000	-2.31069	0.000608792	0.143546	271.289
415.0000	-2.28886	0.000602173	0.14029	271.032
414.5000	-2.19445	0.000605515	0.137462	270.74
414.0000	-2.09977	0.000621211	0.135124	270.449
413.5000	-2.07581	0.000626889	0.133014	270.161
413.0000	-2.11226	0.000630447	0.130892	269.885
412.5000	-2.29714	0.000630712	0.128841	269.638
412.0000	-2.08175	0.000628921	0.127069	269.426
411.5000	-1.92245	0.000623845	0.125	269.211
411.0000	-1.9348	0.000619282	0.123101	269.015
410.5000	-1.87816	0.000628727	0.12145	268.833
410.0000	-1.73928	0.000630771	0.120001	268.668
409.5000	-1.66155	0.000635338	0.118605	268.521
409.0000	-1.60256	0.000631716	0.117197	268.39
408.5000	-1.48029	0.00063484	0.115378	268.251
408.0000	-1.47644	0.00065172	0.113543	268.125
407.5000	-1.38159	0.000650687	0.111535	267.977
407.0000	-1.21139	0.000648792	0.109825	267.829
406.5000	-1.19771	0.000653449	0.108217	267.675
406.0000	-1.18273	0.000655946	0.106643	267.521
405.5000	-1.18086	0.000656771	0.104918	267.359
405.0000	-1.20161	0.000641359	0.103107	267.167
404.5000	-1.14042	0.000639704	0.101527	266.976
404.0000	-1.0867	0.000631035	0.100293	266.761
403.5000	-1.22421	0.000635447	0.0990165	266.518
403.0000	-1.22776	0.000636795	0.0981231	266.266
402.5000	-1.08549	0.000639058	0.0969186	266.003
402.0000	-1.12554	0.000637014	0.0961551	265.75
401.5000	-1.078	0.000634626	0.0956389	265.488
401.0000	-1.14654	0.000638399	0.0948549	265.242
400.5000	-1.07664	0.000636759	0.0941679	265.017
400.0000	-1.01691	0.000630648	0.0933899	264.816
399.5000	-1.06166	0.000618916	0.0933073	264.639
399.0000	-1.21704	0.000622845	0.0932422	264.498
398.5000	-1.34013	0.000622789	0.0929303	264.368
398.0000	-1.34796	0.00061485	0.0924982	264.252
397.5000	-1.33063	0.000616628	0.0920595	264.162
397.0000	-1.31582	0.000614773	0.0920516	264.104
396.5000	-1.25747	0.000617431	0.0920231	264.092
396.0000	-1.21996	0.00062008	0.0919398	264.093
395.5000	-1.26102	0.000617952	0.0913951	264.11
395.0000	-1.25506	0.000609154	0.0911355	264.168
394.5000	-1.13492	0.000610014	0.0911807	264.265
394.0000	-1.17102	0.00061311	0.0911104	264.375
393.5000	-1.08915	0.000624892	0.0908061	264.507
393.0000	-1.07083	0.000605629	0.0902293	264.641
392.5000	-0.959786	0.000626611	0.089941	264.776
392.0000	-0.94115	0.00061847	0.0897762	264.887
391.5000	-0.975761	0.000630129	0.0898867	264.987
391.0000	-0.81363	0.000634295	0.0898698	265.078
390.5000	-0.692895	0.00063659	0.0896751	265.165
390.0000	-0.6117	0.000649892	0.0895721	265.249
389.5000	-0.668557	0.000657872	0.0897378	265.319
389.0000	-0.654425	0.000650178	0.0901199	265.386
388.5000	-0.62255	0.00065993	0.0901241	265.437
388.0000	-0.560062	0.000656275	0.0901283	265.493
387.5000	-0.585015	0.000660571	0.0904961	265.551
387.0000	-0.735219	0.000663494	0.0912443	265.597
386.5000	-0.681348	0.000672845	0.0917844	265.636
386.0000	-0.725145	0.000665117	0.0924496	265.67
385.5000	-0.740759	0.000657666	0.0932088	265.707
385.0000	-0.773822	0.00066441	0.0939468	265.736
384.5000	-0.835498	0.000672988	0.0947758	265.772
384.0000	-1.00115	0.000663305	0.0957766	265.811
383.5000	-0.921389	0.00066813	0.096676	265.864
383.0000	-0.752935	0.000660102	0.0974164	265.915
382.5000	-0.695969	0.000654498	0.0981533	265.959
382.0000	-0.778545	0.000660449	0.0993521	266.005
381.5000	-0.656792	0.000654182	0.100801	266.062
381.0000	-0.5676	0.000666599	0.101925	266.12
380.5000	-0.570586	0.000663847	0.102804	266.171
380.0000	-0.458405	0.000665908	0.103908	266.222
379.5000	-0.513594	0.000669398	0.105156	266.281
379.0000	-0.42573	0.000669036	0.106051	266.342
378.5000	-0.279931	0.000676439	0.106757	266.414
378.0000	-0.252527	0.000672038	0.107473	266.481
377.5000	-0.203032	0.000676019	0.108224	266.537
377.0000	-0.15927	0.000690457	0.108813	266.58
376.5000	-0.200108	0.000685385	0.10962	266.62
376.0000	-0.141087	0.000678745	0.110361	266.647
375.5000	-0.0970623	0.000680683	0.110728	266.658
375.0000	-0.0546549	0.000684107	0.111036	266.656
374.5000	-0.254919	0.000684291	0.111489	266.659
374.0000	-0.424798	0.000677167	0.112032	266.666
373.5000	-0.501558	0.000668235	0.112337	266.661
373.0000	-0.489776	0.000655117	0.112375	266.652
372.5000	-0.521812	0.000648961	0.112457	266.64
372.0000	-0.37494	0.000650455	0.112772	266.642
371.5000	-0.39809	0.000650646	0.112926	266.639
371.0000	-0.465244	0.000648794	0.113304	266.64
370.5000	-0.47894	0.000659301	0.113824	266.648
370.0000	-0.554084	0.000659507	0.114029	266.643
369.5000	-0.507858	0.000659707	0.114296	266.65
369.0000	-0.505369	0.00066271	0.114621	266.663
368.5000	-0.576643	0.000658053	0.115148	266.688
368.0000	-0.437179	0.000657567	0.115512	266.723
367.5000	-0.472467	0.000665282	0.116064	266.77
367.0000	-0.404673	0.00065802	0.11692	266.827
366.5000	-0.276503	0.000666044	0.117571	266.895
366.0000	-0.394845	0.000658786	0.118088	266.962
365.5000	-0.291139	0.00067244	0.118638	267.034
365.0000	-0.225978	0.000678727	0.1191	267.109
364.5000	-0.228428	0.000672711	0.119784	267.184
364.0000	-0.23751	0.000669546	0.120264	267.258
363.5000	-0.225398	0.000680067	0.121126	267.338
363.0000	-0.140117	0.000661382	0.121935	267.418
362.5000	-0.0163684	0.000662237	0.122625	267.499
362.0000	0.127464	0.00065965	0.123458	267.596
361.5000	0.172199	0.000668408	0.124304	267.678
361.0000	0.143795	0.000668298	0.125079	267.757
360.5000	0.183056	0.000661385	0.12564	267.836
360.0000	0.271264	0.000662135	0.126156	267.902
359.5000	0.334399	0.000658195	0.126652	267.974
359.0000	0.442757	0.00065941	0.126814	268.037
358.5000	0.438889	0.000669548	0.127023	268.115
358.0000	0.404785	0.000657363	0.127129	268.18
357.5000	0.597165	0.000665811	0.127183	268.242
357.0000	0.661141	0.000661524	0.127495	268.304
356.5000	0.653374	0.000666122	0.128167	268.37
356.0000	0.711875	0.00066864	0.128393	268.428
355.5000	0.680586	0.000667477	0.128634	268.49
355.0000	0.752039	0.000662111	0.128727	268.548
354.5000	0.724193	0.00067303	0.128835	268.61
354.0000	0.661114	0.000660959	0.128965	268.664
353.5000	0.620372	0.000664296	0.129164	268.724
353.0000	0.579975	0.00066786	0.129321	268.788
352.5000	0.533326	0.000662916	0.129638	268.863
352.0000	0.73444	0.000667403	0.129923	268.934
351.5000	0.729091	0.000668917	0.130175	268.999
351.0000	0.723943	0.000669748	0.130683	269.058
350.5000	0.697364	0.000654487	0.13136	269.121
350.0000	0.707271	0.000653369	0.132025	269.18
349.5000	0.666253	0.000649887	0.132837	269.244
349.0000	0.609025	0.000652088	0.133835	269.316
348.5000	0.569507	0.000648634	0.134861	269.384
348.0000	0.479664	0.000637382	0.135577	269.447
347.5000	0.36393	0.00064463	0.136515	269.505
347.0000	0.509281	0.000641948	0.137524	269.566
346.5000	0.414979	0.000642451	0.138381	269.631
346.0000	0.537145	0.000648025	0.139042	269.686
345.5000	0.474221	0.00064669	0.140031	269.753
345.0000	0.560683	0.000640896	0.140934	269.811
344.5000	0.778038	0.000640799	0.141794	269.864
344.0000	0.724954	0.00063224	0.142833	269.917
343.5000	0.611036	0.000611355	0.143644	269.972
343.0000	0.657327	0.000596404	0.144324	270.026
342.5000	0.72567	0.00060149	0.14495	270.087
342.0000	0.699561	0.000614338	0.145725	270.165
341.5000	0.819825	0.000616174	0.146479	270.231
341.0000	0.875534	0.000623919	0.147329	270.289
340.5000	1.01314	0.000609621	0.147995	270.354
340.0000	0.925635	0.000607963	0.148616	270.419
339.5000	1.02319	0.000597861	0.149049	270.489
339.0000	1.10387	0.000582771	0.149928	270.575
338.5000	1.17795	0.000581063	0.150798	270.653
338.0000	1.07614	0.000592349	0.151681	270.737
337.5000	1.19673	0.000607945	0.152433	270.818
337.0000	1.27306	0.000592571	0.153128	270.902
336.5000	1.15682	0.000583588	0.15399	270.982
336.0000	1.22759	0.000581288	0.154841	271.074
335.5000	1.35096	0.000590852	0.155643	271.16
335.0000	1.22385	0.000589913	0.156525	271.252
334.5000	1.23518	0.000587133	0.157353	271.349
334.0000	1.36043	0.000566371	0.158305	271.446
333.5000	1.36731	0.000567115	0.159485	271.533
333.0000	1.34254	0.000562322	0.160448	271.63
332.5000	1.37152	0.00055168	0.161108	271.727
332.0000	1.31612	0.000559413	0.161882	271.827
331.5000	1.36249	0.000557182	0.163094	271.947
331.0000	1.3148	0.000560011	0.164341	272.066
330.5000	1.33262	0.000573556	0.165142	272.166
330.0000	1.16082	0.000554755	0.166149	272.275
329.5000	1.11282	0.000539577	0.167144	272.385
329.0000	0.979446	0.000503904	0.16814	272.504
328.5000	0.967375	0.000512328	0.169021	272.602
328.0000	0.99674	0.000511724	0.169784	272.699
327.5000	0.880217	0.000507001	0.17082	272.802
327.0000	0.771376	0.00049408	0.172025	272.897
326.5000	0.872915	0.000501457	0.17344	273.008
326.0000	0.640876	0.000504728	0.175096	273.138
325.5000	0.501877	0.000506168	0.176624	273.277
325.0000	0.344241	0.000487357	0.177816	273.415
324.5000	0.603501	0.000477855	0.179212	273.558
324.0000	0.673615	0.000464526	0.180994	273.72
323.5000	0.690175	0.000462282	0.182749	273.868
323.0000	0.66217	0.000452774	0.184282	274.022
322.5000	0.614116	0.000452039	0.185681	274.167
322.0000	0.45619	0.000444046	0.18712	274.328
321.5000	0.636748	0.000442833	0.188878	274.495
321.0000	0.502685	0.00043183	0.190665	274.663
320.5000	0.580696	0.000433857	0.192493	274.828
320.0000	0.593285	0.000432384	0.194267	275.003
319.5000	0.525881	0.000417694	0.195837	275.159
319.0000	0.515597	0.000423725	0.197531	275.35
318.5000	0.627041	0.000418671	0.199105	275.54
318.0000	0.620798	0.000400671	0.200481	275.708
317.5000	0.759589	0.000400075	0.201866	275.856
317.0000	0.689796	0.000392711	0.203589	276.01
316.5000	0.599182	0.000392029	0.205494	276.165
316.0000	0.568207	0.000373954	0.207458	276.329
315.5000	0.390541	0.000381116	0.208984	276.486
315.0000	0.417749	0.000385817	0.210731	276.675
314.5000	0.407079	0.00037636	0.21235	276.852
314.0000	0.68075	0.000375789	0.21432	277.051
313.5000	0.67203	0.000369252	0.216274	277.245
313.0000	0.780249	0.000377408	0.218254	277.452
312.5000	0.855626	0.000384419	0.220108	277.659
312.0000	0.901977	0.000385336	0.222238	277.873
311.5000	0.892386	0.000382199	0.224375	278.098
311.0000	0.873247	0.000378377	0.226977	278.345
310.5000	0.848123	0.000365212	0.229401	278.614
310.0000	0.742301	0.000367517	0.232014	278.881
309.5000	0.691094	0.00035899	0.234813	279.161
309.0000	0.835484	0.000359777	0.237965	279.48
308.5000	0.947311	0.000358774	0.240975	279.816
308.0000	1.063	0.000358558	0.243876	280.136
307.5000	0.98313	0.000347353	0.247382	280.506
307.0000	1.18036	0.000338556	0.251074	280.873
306.5000	1.12556	0.00033509	0.255141	281.276
306.0000	1.30822	0.000335147	0.259361	281.68
305.5000	1.22301	0.000331846	0.263813	282.133
305.0000	1.36645	0.00032597	0.268552	282.601
304.5000	1.15373	0.000327142	0.274134	283.133
304.0000	1.10956	0.000320023	0.280104	283.695
303.5000	1.00875	0.000318517	0.286213	284.27
303.0000	1.03382	0.000315034	0.292782	284.911
302.5000	0.977555	0.000307814	0.299644	285.586
302.0000	0.95249	0.000302887	0.307116	286.3
301.5000	0.970493	0.000300345	0.314877	287.038
301.0000	1.07827	0.000306111	0.322536	287.789
300.5000	0.94557	0.000302574	0.329714	288.496
300.0000	1.0032	0.000284017	0.338619	289.341
299.5000	1.03056	0.000279646	0.34718	290.166
299.0000	0.942433	0.000288286	0.355671	291
298.5000	0.928838	0.000299735	0.364344	291.865
298.0000	0.741484	0.000294032	0.372649	292.686
297.5000	0.697654	0.000272834	0.381436	293.549
297.0000	0.657972	0.000287197	0.3896	294.31
296.5000	0.369913	0.000289197	0.397166	295.035
296.0000	0.434435	0.000288347	0.404602	295.755
295.5000	0.528143	0.000284847	0.412039	296.448
295.0000	0.583546	0.000267391	0.418964	297.077
294.5000	0.518955	0.000258819	0.425698	297.701
294.0000	0.532212	0.000278172	0.432235	298.35
293.5000	0.52594	0.000265508	0.437358	298.877
293.0000	0.570979	0.000283168	0.442811	299.43
292.5000	0.622352	0.000280793	0.448001	299.979
292.0000	0.633311	0.000305585	0.452469	300.472
291.5000	0.40727	0.000306877	0.456808	300.94
291.0000	0.377824	0.000314346	0.460878	301.38
290.5000	0.255541	0.000298486	0.465147	301.834
290.0000	0.166142	0.000309347	0.469363	302.263
289.5000	-0.0278918	0.00030541	0.472798	302.647
289.0000	-0.128428	0.00032316	0.476043	303.018
288.5000	-0.128444	0.00031425	0.479615	303.434
288.0000	-0.163557	0.000321978	0.483143	303.849
287.5000	-0.232102	0.000339333	0.486841	304.293
287.0000	-0.325885	0.000343626	0.490319	304.757
286.5000	-0.675844	0.000359749	0.493375	305.199
286.0000	-0.845928	0.000362549	0.496618	305.624
285.5000	-0.956753	0.000380814	0.500218	306.034
285.0000	-1.24174	0.000377111	0.503933	306.461
284.5000	-1.5474	0.000393093	0.507434	306.868
284.0000	-1.72284	0.000391738	0.511195	307.3
283.5000	-1.76743	0.000395348	0.515314	307.756
283.0000	-1.7038	0.000403453	0.519295	308.202
282.5000	-1.89382	0.000410666	0.523869	308.705
282.0000	-1.75059	0.000421401	0.528128	309.21
281.5000	-1.89889	0.000427939	0.532213	309.702
281.0000	-1.82912	0.000437929	0.536758	310.22
280.5000	-1.9648	0.00044566	0.541613	310.793
280.0000	-1.96651	0.000470319	0.546756	311.393
279.5000	-2.10655	0.000472015	0.55216	312.03
279.0000	-2.27488	0.000460841	0.55745	312.664
278.5000	-2.53831	0.000456093	0.563625	313.383
278.0000	-2.6361	0.000458591	0.570987	314.183
277.5000	-2.67568	0.00047321	0.578074	314.955
277.0000	-2.69142	0.000476156	0.585805	315.823
276.5000	-2.74296	0.000488345	0.594045	316.758
276.0000	-2.64575	0.000484576	0.601996	317.652
275.5000	-2.92782	0.00049295	0.611648	318.703
275.0000	-2.96372	0.000504249	0.621766	319.811
274.5000	-3.03452	0.000509713	0.632217	320.978
274.0000	-3.11117	0.000517626	0.643615	322.279
273.5000	-3.40465	0.000526077	0.655082	323.55
273.0000	-3.54853	0.000533041	0.668044	324.98
272.5000	-3.63636	0.000559859	0.68169	326.496
272.0000	-3.99061	0.000548505	0.696171	328.122
271.5000	-4.07269	0.000546967	0.712339	329.94
271.0000	-4.43511	0.000562419	0.728755	331.757
270.5000	-4.33829	0.000584836	0.74639	333.695
270.0000	-4.15542	0.000620341	0.764544	335.732
269.5000	-4.10855	0.000635044	0.783578	337.91
269.0000	-4.46307	0.000671856	0.80271	340.093
268.5000	-4.64906	0.00069405	0.824172	342.535
268.0000	-4.98947	0.000690194	0.846729	345.103
267.5000	-5.10017	0.000723458	0.870378	347.815
267.0000	-5.5667	0.000724876	0.89599	350.804
266.5000	-6.2562	0.000721638	0.922979	353.99
266.0000	-6.87936	0.000721899	0.948656	356.988
265.5000	-7.16047	0.000733549	0.976533	360.235
265.0000	-7.88424	0.000709318	1.00614	363.755
264.5000	-8.19963	0.000724823	1.03457	367.189
264.0000	-8.37111	0.000766648	1.06318	370.674
263.5000	-8.58584	0.000804298	1.09338	374.352
263.0000	-8.85908	0.000787898	1.12058	377.698
262.5000	-8.96015	0.000776261	1.15015	381.409
262.0000	-9.52091	0.000723185	1.17766	384.942
261.5000	-9.53103	0.000731632	1.20518	388.474
261.0000	-9.94866	0.000731779	1.23139	391.814
260.5000	-9.64844	0.000743872	1.25838	395.304
260.0000	-9.57689	0.000758091	1.28504	398.802
259.5000	-9.88886	0.000750147	1.31121	402.284
259.0000	-9.93949	0.000735652	1.33696	405.771
258.5000	-9.8819	0.000746409	1.36274	409.25
258.0000	-9.49571	0.000766342	1.38841	412.74
257.5000	-9.63789	0.00074987	1.41263	416.058
257.0000	-8.84898	0.000799286	1.43817	419.586
256.5000	-9.105	0.000781686	1.46258	422.974
256.0000	-9.93341	0.000766942	1.48854	426.578
255.5000	-9.29644	0.0007701	1.51481	430.233
255.0000	-9.50957	0.00073555	1.54116	433.937
254.5000	-9.57185	0.000729249	1.56642	437.513
254.0000	-10.6891	0.000784803	1.59185	441.128
253.5000	-10.4974	0.000827243	1.62034	445.139
253.0000	-10.7166	0.00083839	1.64578	448.78
252.5000	-11.8347	0.000752878	1.68241	454.125
252.0000	-12.4621	0.000708979	1.71201	458.47
251.5000	-12.0212	0.000714067	1.73711	462.166
251.0000	-12.7433	0.0007298	1.76184	465.786
250.5000	-12.4697	0.000636125	1.78551	469.31
250.0000	-13.098	0.000609612	1.80694	472.548
249.5000	-13.8348	0.000661978	1.82754	475.695
249.0000	-14.2169	0.000567393	1.84836	478.894
248.5000	-13.8909	0.000565115	1.86747	481.823
248.0000	-14.2458	0.000530113	1.88665	484.794
247.5000	-14.4612	0.000498607	1.90417	487.556
247.0000	-14.1372	0.000487413	1.92201	490.401
246.5000	-13.339	0.000405851	1.93965	493.206
246.0000	-13.4822	0.000345108	1.95708	495.966
245.5000	-13.3787	0.000271397	1.97485	498.864
245.0000	-13.9864	0.000192325	1.99278	501.799
244.5000	-14.5076	0.0001776	2.01097	504.774
244.0000	-14.521	3.88438E-005	2.02931	507.817
243.5000	-14.5575	3.73749E-005	2.04741	510.852
243.0000	-15.0989	-3.43286E-005	2.06625	514.057
242.5000	-15.1929	-0.000148377	2.08815	517.807
242.0000	-15.2042	-1.90954E-005	2.10822	521.259
241.5000	-14.6224	-6.72702E-005	2.13184	525.336
241.0000	-13.839	-4.5955E-005	2.1548	529.311
240.5000	-13.681	-4.75563E-005	2.18165	534.052
240.0000	-13.9846	-1.10802E-005	2.20802	538.721
239.5000	-15.2051	-0.000101671	2.24115	544.605
239.0000	-15.2031	-0.000135526	2.27232	550.139
238.5000	-15.2992	-4.14656E-005	2.3074	556.418
238.0000	-15.6232	-0.000113202	2.34685	563.586
237.5000	-16.3028	-3.48012E-005	2.38498	570.595
237.0000	-17.1881	-0.000222357	2.42763	578.501
236.5000	-15.7424	-6.80637E-005	2.47309	587.005
236.0000	-14.0357	-0.000134204	2.51876	595.622
235.5000	-12.3547	-0.000153241	2.57418	606.249
235.0000	-11.8693	-1.20649E-005	2.61362	613.907
234.5000	-11.5806	-0.000128989	2.65717	622.432
234.0000	-13.1219	-0.000115547	2.70503	631.889
233.5000	-13.6989	-0.000384177	2.76055	642.962
233.0000	-15.976	-0.000495244	2.82069	655.138
232.5000	-15.0727	-0.000470558	2.87929	667.239
232.0000	-15.2727	-0.000458133	2.94825	681.774
231.5000	-13.3745	-0.000688437	3.00514	694.025
231.0000	-10.9267	-0.000709714	3.06836	707.898
230.5000	-8.58483	-0.000649762	3.13079	721.947
230.0000	-10.331	-0.000837627	3.18869	735.333
229.5000	-8.42918	-0.000896527	3.248	749.332
229.0000	-8.75871	-0.000526651	3.30507	763.149
228.5000	-7.02972	-0.000339022	3.35891	776.494
228.0000	-6.36601	-0.000367523	3.40741	788.819
227.5000	-8.52839	-0.000612666	3.45444	801.229
227.0000	-11.2057	-0.000417493	3.49764	812.996
226.5000	-15.8485	-0.000409802	3.53879	824.592
226.0000	-13.9952	-0.000256319	3.57188	834.35
225.5000	-13.8015	-3.16131E-005	3.60264	843.861
225.0000	-12.308	0.000534222	3.62843	852.472
224.5000	-8.01715	0.000454406	3.64966	860.175
224.0000	-7.62176	0.000474876	3.66663	866.937
223.5000	-8.9569	0.000543622	3.67989	872.813
223.0000	-6.46904	0.000711089	3.68942	877.808
222.5000	-8.68647	0.000780494	3.69561	882.705
222.0000	-9.09184	0.000827779	3.69727	886.277
221.5000	-9.79554	0.000999942	3.69537	889.185
221.0000	-9.06689	0.0010232	3.69133	891.109
220.5000	-9.98419	0.000988909	3.68558	892.656
220.0000	-8.07101	0.00130881	3.67771	893.871

##### Extended Information
[Comments]
Sample name	JS187+JS190_5E-5_H2O_65-35
Comment
User
Division
Company	Labo systeme complexes hors equilibre

[Detailed Information]
Creation date	1/23/2024 11:58 AM

Data array type	Linear data array * 4
Horizontal axis	Wavelength [nm]
Vertical axis(1)	CD [mdeg]
Vertical axis(2)	LD [dOD]
Vertical axis(3)	Abs
Vertical axis(4)	HT [V]
Start	700 nm
End	220 nm
Data interval	0.5 nm
Data points	961     

[Measurement Information]
Instrument name	CD Jasco
Model name	J-1500
Serial No.	A005261638

Detector	PM-539
Detector S/N	A0052PM539
  Lock-in amp.	X mode
  HT volt	Auto

Detector	EXPML-535
Detector S/N	A0001
  Lock-in amp.	X mode
  HT volt	Auto

Measurement date	1/23/2024 11:58 AM

Overload detect	1
Photometric mode	CD, LD, Abs, HT
Measure range	700 - 220 nm
Data pitch	0.5 nm
CD scale	200 mdeg/1.0 dOD
FL scale	200 mdeg/1.0 dOD
D.I.T.	1 sec
Bandwidth	1.00 nm
Start mode	Immediately
Scanning speed	500 nm/min
Baseline correction	Baseline
Shutter control	Auto


