TITLE	JS187+JS190_5E-5_HEPES_ASPREP_0-100
DATA TYPE	
ORIGIN	JASCO
OWNER	
DATE	24/03/20
TIME	10:57:15
SPECTROMETER/DATA SYSTEM	
LOCALE	1033
RESOLUTION	
DELTAX	-0.5
XUNITS	NANOMETERS
YUNITS	CD [mdeg]
Y2UNITS	LD [dOD]
Y3UNITS	ABSORBANCE
Y4UNITS	HT [V]
FIRSTX	  700.0000
LASTX	  250.0000
NPOINTS	     901
FIRSTY	     0.79415
MAXY	    26.34113
MINY	   -12.24868
XYDATA
700.0000	0.794153	2.51324E-005	0.0713524	307.474
699.5000	1.16805	5.16305E-006	0.0705196	307.128
699.0000	1.2048	-6.50388E-006	0.0691422	306.713
698.5000	1.20805	6.39778E-006	0.067465	306.25
698.0000	1.33857	1.62883E-005	0.0655926	305.744
697.5000	1.36313	2.89231E-005	0.0639301	305.221
697.0000	1.19861	1.14585E-005	0.062628	304.636
696.5000	1.45772	-1.00831E-005	0.0616157	304.068
696.0000	1.72862	-2.97588E-005	0.0611859	303.486
695.5000	1.80104	-2.91449E-005	0.0608882	302.952
695.0000	1.82997	-3.29495E-005	0.0617417	302.492
694.5000	1.71659	-1.21526E-005	0.0634504	302.077
694.0000	2.01345	-1.61887E-005	0.0659985	301.719
693.5000	1.95093	7.77372E-006	0.0688572	301.399
693.0000	1.86737	1.02061E-005	0.0712896	301.126
692.5000	2.0784	1.39509E-005	0.0739029	300.875
692.0000	2.13745	4.16316E-005	0.0767945	300.673
691.5000	2.01116	5.14436E-005	0.0793793	300.482
691.0000	2.02665	6.04774E-005	0.0819016	300.296
690.5000	2.01197	7.17689E-005	0.0841163	300.151
690.0000	2.22222	8.4875E-005	0.0863241	300.065
689.5000	2.07841	8.39683E-005	0.0891289	300.059
689.0000	2.09476	9.84835E-005	0.09285	300.165
688.5000	2.20497	0.00011563	0.0974752	300.376
688.0000	1.80857	0.000114298	0.102134	300.648
687.5000	1.62372	0.000136407	0.106754	300.966
687.0000	1.63769	0.000132846	0.109661	301.255
686.5000	1.51988	0.000136424	0.111111	301.531
686.0000	1.25683	0.000108423	0.111389	301.773
685.5000	1.13236	9.86238E-005	0.110859	302.015
685.0000	1.2265	9.01503E-005	0.110248	302.257
684.5000	1.06196	7.95071E-005	0.109736	302.489
684.0000	0.894886	8.76772E-005	0.109121	302.716
683.5000	0.839648	7.49643E-005	0.108684	302.959
683.0000	0.955559	7.81451E-005	0.108414	303.242
682.5000	0.871288	9.1588E-005	0.108498	303.542
682.0000	0.728898	8.58244E-005	0.108627	303.853
681.5000	0.830718	7.28006E-005	0.108668	304.121
681.0000	0.952891	7.71549E-005	0.107948	304.342
680.5000	1.02018	6.37162E-005	0.106028	304.467
680.0000	1.04382	5.81284E-005	0.103088	304.525
679.5000	1.13478	7.27665E-005	0.0999425	304.533
679.0000	1.01753	6.55777E-005	0.0973844	304.519
678.5000	1.15535	4.89772E-005	0.0954642	304.497
678.0000	1.39553	6.1396E-005	0.0943613	304.476
677.5000	1.62694	8.87155E-005	0.0943724	304.458
677.0000	1.55562	0.000100624	0.0945407	304.435
676.5000	1.51801	0.000105583	0.0950577	304.426
676.0000	1.52263	0.000123847	0.0955644	304.422
675.5000	1.39998	0.000113031	0.0962476	304.425
675.0000	1.31634	0.000103178	0.0968364	304.429
674.5000	1.32577	0.000115272	0.0973071	304.442
674.0000	1.24889	0.000124747	0.0982731	304.466
673.5000	1.18889	0.000136412	0.0992911	304.505
673.0000	1.37735	0.000145483	0.100232	304.543
672.5000	1.45738	0.000154367	0.101303	304.601
672.0000	1.49458	0.000142908	0.102115	304.661
671.5000	1.62507	0.00014997	0.102898	304.726
671.0000	1.57064	0.000164125	0.103483	304.791
670.5000	1.82767	0.000170908	0.104061	304.861
670.0000	1.69009	0.000186542	0.104733	304.934
669.5000	1.71459	0.000182884	0.104922	305.014
669.0000	1.88141	0.000187926	0.105201	305.111
668.5000	1.76511	0.000195043	0.105508	305.198
668.0000	1.76043	0.000192607	0.105916	305.305
667.5000	1.82821	0.000207273	0.106359	305.416
667.0000	1.80111	0.000204471	0.106921	305.541
666.5000	1.90245	0.000209663	0.107566	305.673
666.0000	1.89755	0.000201325	0.108122	305.804
665.5000	1.90408	0.000187903	0.108456	305.93
665.0000	1.7258	0.000194393	0.108408	306.044
664.5000	1.6792	0.000171594	0.108299	306.148
664.0000	1.54275	0.000174506	0.108057	306.242
663.5000	1.58028	0.000171571	0.107963	306.324
663.0000	1.61722	0.000156938	0.107733	306.401
662.5000	1.44177	0.000158083	0.107266	306.472
662.0000	1.39704	0.000167561	0.106669	306.528
661.5000	1.25587	0.000146333	0.106057	306.553
661.0000	1.18598	0.000142823	0.105689	306.573
660.5000	1.20043	0.000140199	0.105406	306.583
660.0000	1.29219	0.000136197	0.104831	306.572
659.5000	1.33157	0.000145435	0.104221	306.535
659.0000	1.20672	0.000125571	0.103966	306.486
658.5000	1.07836	0.000104922	0.103549	306.401
658.0000	1.08947	0.000108101	0.102879	306.295
657.5000	1.21674	0.000113244	0.102033	306.164
657.0000	1.29575	9.45422E-005	0.10145	306.024
656.5000	1.29335	0.000103649	0.101045	305.852
656.0000	1.11658	9.7661E-005	0.100565	305.673
655.5000	1.1968	0.000116355	0.100123	305.492
655.0000	1.1141	0.000131861	0.100054	305.31
654.5000	1.04327	0.000154092	0.101059	305.147
654.0000	1.28809	0.000145396	0.10221	304.99
653.5000	1.19092	0.000139974	0.103321	304.856
653.0000	1.26061	0.000149898	0.104685	304.756
652.5000	1.43164	0.000132347	0.106438	304.679
652.0000	1.41063	0.000130927	0.108447	304.637
651.5000	1.30432	0.000114248	0.110585	304.627
651.0000	1.46386	0.000108667	0.112155	304.652
650.5000	1.37296	0.000140563	0.113801	304.712
650.0000	1.46872	0.000136799	0.115051	304.793
649.5000	1.68836	0.000152557	0.117156	304.897
649.0000	1.64701	0.000146538	0.119061	305.032
648.5000	1.59154	0.000137332	0.120805	305.185
648.0000	1.91808	0.000133085	0.122631	305.375
647.5000	2.01795	0.00012056	0.12408	305.558
647.0000	1.9424	0.000130255	0.12544	305.76
646.5000	2.21094	0.00012275	0.125901	305.939
646.0000	2.02177	0.000122335	0.125809	306.114
645.5000	1.97577	0.000132952	0.12545	306.267
645.0000	2.15755	0.000138886	0.125542	306.396
644.5000	2.1151	0.00013824	0.125451	306.507
644.0000	2.10301	0.000128621	0.124867	306.58
643.5000	2.33966	0.000129256	0.124061	306.626
643.0000	2.13885	0.000131649	0.123632	306.651
642.5000	2.30387	0.000143974	0.123648	306.651
642.0000	2.24153	0.000137004	0.123821	306.635
641.5000	2.28903	0.000132512	0.123934	306.627
641.0000	1.98994	0.000151208	0.123593	306.605
640.5000	2.03749	0.000162781	0.123661	306.572
640.0000	2.19113	0.000175691	0.123876	306.529
639.5000	2.15697	0.000175485	0.12429	306.475
639.0000	2.26697	0.000167214	0.124965	306.43
638.5000	2.09166	0.000158127	0.125709	306.37
638.0000	2.23883	0.000158143	0.126923	306.32
637.5000	2.48071	0.000157461	0.128206	306.252
637.0000	2.44636	0.000154267	0.129515	306.203
636.5000	2.25067	0.000147635	0.13038	306.157
636.0000	2.46166	0.00016513	0.131428	306.132
635.5000	2.41361	0.000162576	0.132885	306.125
635.0000	2.58697	0.000180424	0.134044	306.112
634.5000	2.7569	0.000170837	0.134738	306.104
634.0000	2.7952	0.000147685	0.135409	306.11
633.5000	2.7869	0.000151818	0.13646	306.109
633.0000	2.71237	0.000139983	0.137639	306.099
632.5000	2.52677	0.000126478	0.138941	306.1
632.0000	2.4387	0.000122113	0.139849	306.11
631.5000	2.36845	0.000104092	0.14087	306.127
631.0000	2.28154	0.000114325	0.141868	306.126
630.5000	2.26899	0.000121735	0.14302	306.13
630.0000	2.25769	0.000112378	0.144064	306.138
629.5000	2.05038	0.000113649	0.144814	306.136
629.0000	2.14459	9.42567E-005	0.145727	306.145
628.5000	2.03082	8.73419E-005	0.146723	306.151
628.0000	2.38332	0.000100461	0.147769	306.144
627.5000	2.01292	8.1773E-005	0.148757	306.139
627.0000	1.863	9.48697E-005	0.149475	306.142
626.5000	1.99791	8.58756E-005	0.150628	306.153
626.0000	1.81624	9.10066E-005	0.152371	306.172
625.5000	1.93332	8.00622E-005	0.154085	306.191
625.0000	2.07757	7.79679E-005	0.155607	306.235
624.5000	2.10383	7.99445E-005	0.157126	306.293
624.0000	2.20788	6.82679E-005	0.158994	306.358
623.5000	2.20267	5.53442E-005	0.161252	306.442
623.0000	2.39844	5.95615E-005	0.163109	306.537
622.5000	2.44077	6.7033E-005	0.164694	306.656
622.0000	2.42286	6.58367E-005	0.166194	306.768
621.5000	2.64652	5.81503E-005	0.167927	306.903
621.0000	2.65355	3.87806E-005	0.169898	307.049
620.5000	2.8951	4.95497E-005	0.171628	307.205
620.0000	3.08607	5.164E-005	0.17331	307.37
619.5000	3.03835	3.99947E-005	0.175041	307.578
619.0000	3.25507	6.22455E-005	0.176968	307.798
618.5000	3.17998	3.45692E-005	0.178963	308.04
618.0000	3.1378	2.77709E-005	0.180878	308.278
617.5000	3.24405	4.69986E-005	0.182368	308.522
617.0000	2.95273	4.04069E-005	0.184059	308.776
616.5000	2.90009	3.52123E-005	0.185678	309.007
616.0000	3.03342	2.41526E-005	0.187184	309.241
615.5000	3.10726	3.24414E-005	0.188288	309.466
615.0000	3.13862	3.85838E-005	0.189309	309.687
614.5000	3.22253	5.08743E-005	0.19061	309.909
614.0000	3.27677	4.24378E-005	0.192071	310.134
613.5000	3.27851	4.98288E-005	0.193228	310.342
613.0000	3.27606	6.87208E-005	0.194164	310.575
612.5000	2.92832	5.31287E-005	0.195501	310.805
612.0000	2.48189	3.17633E-005	0.197064	311.034
611.5000	2.61518	4.333E-005	0.198811	311.254
611.0000	2.56057	4.02574E-005	0.20024	311.471
610.5000	2.76046	5.29644E-005	0.201469	311.672
610.0000	2.82618	5.12373E-005	0.202696	311.863
609.5000	2.83888	5.53475E-005	0.203881	312.048
609.0000	3.18944	5.29233E-005	0.205286	312.228
608.5000	3.0455	4.52082E-005	0.206877	312.415
608.0000	3.23829	5.14284E-005	0.208603	312.594
607.5000	3.11631	5.26959E-005	0.210268	312.766
607.0000	3.16711	3.79084E-005	0.212147	312.95
606.5000	3.13316	4.16424E-005	0.21417	313.138
606.0000	2.93083	2.13782E-005	0.216012	313.304
605.5000	3.02228	-1.16653E-006	0.218307	313.487
605.0000	2.89429	-1.90273E-005	0.220667	313.665
604.5000	3.23971	-2.5481E-005	0.222676	313.828
604.0000	3.21509	-4.00281E-005	0.224549	313.995
603.5000	3.39368	-4.30111E-005	0.226429	314.157
603.0000	3.24447	-4.63289E-005	0.228485	314.307
602.5000	3.13946	-5.06717E-005	0.230732	314.461
602.0000	3.03799	-6.77819E-005	0.232998	314.609
601.5000	2.76192	-6.92294E-005	0.235443	314.768
601.0000	2.9221	-5.51049E-005	0.238013	314.928
600.5000	2.736	-7.50334E-005	0.240704	315.086
600.0000	2.76073	-6.49203E-005	0.243424	315.23
599.5000	2.59741	-7.07506E-005	0.245838	315.378
599.0000	2.71728	-7.66454E-005	0.247837	315.5
598.5000	2.66559	-9.05184E-005	0.250317	315.619
598.0000	2.69619	-9.62313E-005	0.253165	315.741
597.5000	2.72418	-9.79105E-005	0.256109	315.872
597.0000	2.62162	-0.000101499	0.25891	316.008
596.5000	2.82312	-9.89084E-005	0.261751	316.123
596.0000	2.70462	-0.000102428	0.265046	316.247
595.5000	2.9089	-0.000117052	0.268514	316.378
595.0000	3.09392	-9.67886E-005	0.271633	316.489
594.5000	2.82919	-0.00011091	0.275122	316.629
594.0000	2.88077	-0.000124649	0.278944	316.787
593.5000	3.17539	-0.000154926	0.282955	316.934
593.0000	3.09189	-0.000172816	0.28693	317.093
592.5000	3.10565	-0.00018595	0.290893	317.28
592.0000	3.05237	-0.000216918	0.294782	317.49
591.5000	2.86047	-0.00022473	0.298831	317.689
591.0000	2.89487	-0.000236381	0.303436	317.893
590.5000	3.03269	-0.000221964	0.30796	318.132
590.0000	3.24227	-0.000205025	0.312395	318.399
589.5000	3.17051	-0.000204665	0.316808	318.676
589.0000	3.02569	-0.000224861	0.321548	318.975
588.5000	3.16649	-0.000233157	0.326769	319.298
588.0000	3.0505	-0.000259765	0.332255	319.655
587.5000	2.89126	-0.000261203	0.337609	320.023
587.0000	2.4692	-0.000268923	0.343168	320.449
586.5000	2.29704	-0.000271977	0.348794	320.879
586.0000	2.38563	-0.000286198	0.354479	321.313
585.5000	2.40798	-0.000275489	0.359751	321.757
585.0000	1.87902	-0.000288806	0.365378	322.231
584.5000	1.54517	-0.000287731	0.370861	322.681
584.0000	1.49136	-0.000295291	0.376913	323.187
583.5000	1.41877	-0.000297919	0.383263	323.716
583.0000	1.38202	-0.00030869	0.390249	324.324
582.5000	1.181	-0.00031994	0.397521	324.97
582.0000	0.830443	-0.00036184	0.405114	325.61
581.5000	0.511436	-0.00036751	0.412967	326.28
581.0000	0.0509788	-0.000374914	0.420937	326.97
580.5000	-0.662503	-0.000406384	0.428592	327.679
580.0000	-1.06963	-0.000394134	0.436348	328.393
579.5000	-1.34554	-0.000397215	0.444124	329.139
579.0000	-1.71428	-0.000394451	0.452683	329.908
578.5000	-1.96448	-0.000440599	0.461572	330.676
578.0000	-2.616	-0.000460188	0.470605	331.496
577.5000	-2.92864	-0.000473018	0.480265	332.383
577.0000	-3.06959	-0.00048373	0.490095	333.263
576.5000	-3.40852	-0.000505937	0.501	334.231
576.0000	-3.65422	-0.000498621	0.511524	335.195
575.5000	-3.94326	-0.000494586	0.52241	336.191
575.0000	-4.11303	-0.000536737	0.532519	337.134
574.5000	-4.87158	-0.000563382	0.54376	338.169
574.0000	-4.93058	-0.000532035	0.554798	339.179
573.5000	-5.29373	-0.000518855	0.565612	340.217
573.0000	-5.4864	-0.000536683	0.577114	341.336
572.5000	-5.35921	-0.000537068	0.588128	342.393
572.0000	-5.93547	-0.000543906	0.600804	343.602
571.5000	-6.44993	-0.000552697	0.613448	344.782
571.0000	-6.88707	-0.00055197	0.626606	346.024
570.5000	-7.29077	-0.000559409	0.639665	347.301
570.0000	-7.5179	-0.000566031	0.652104	348.547
569.5000	-7.86709	-0.00057049	0.665299	349.845
569.0000	-8.4087	-0.000586703	0.678326	351.13
568.5000	-9.03954	-0.000580574	0.690445	352.345
568.0000	-9.30494	-0.000559927	0.702973	353.599
567.5000	-9.7202	-0.000557687	0.715652	354.861
567.0000	-10.1007	-0.000566983	0.727868	356.078
566.5000	-10.4735	-0.000540186	0.739606	357.231
566.0000	-10.8374	-0.000570955	0.750791	358.355
565.5000	-11.4793	-0.000585266	0.761705	359.449
565.0000	-11.5623	-0.000628586	0.772614	360.505
564.5000	-11.8749	-0.000652407	0.783302	361.542
564.0000	-11.7282	-0.000700145	0.79287	362.46
563.5000	-11.6454	-0.000724101	0.801952	363.33
563.0000	-12.1309	-0.000756417	0.81091	364.207
562.5000	-12.2487	-0.000803317	0.818974	364.972
562.0000	-12.2239	-0.00083051	0.826628	365.68
561.5000	-11.9882	-0.000829242	0.834674	366.395
561.0000	-11.9467	-0.000833691	0.841934	367.036
560.5000	-11.6603	-0.00084439	0.848472	367.622
560.0000	-11.9336	-0.000875183	0.85448	368.154
559.5000	-11.3917	-0.000892768	0.85982	368.586
559.0000	-10.9728	-0.000884351	0.864097	368.908
558.5000	-10.5929	-0.00090968	0.867415	369.149
558.0000	-10.1285	-0.000944812	0.870001	369.319
557.5000	-9.68272	-0.000940838	0.872328	369.43
557.0000	-9.1863	-0.000945696	0.874201	369.475
556.5000	-8.90932	-0.000956083	0.875357	369.457
556.0000	-8.55261	-0.000924092	0.876097	369.385
555.5000	-8.2842	-0.000896501	0.876022	369.245
555.0000	-7.29686	-0.000874738	0.875569	369.04
554.5000	-6.51042	-0.000866587	0.874479	368.771
554.0000	-5.71452	-0.000854365	0.87295	368.456
553.5000	-5.68492	-0.000883061	0.871173	368.107
553.0000	-5.1555	-0.000878803	0.869215	367.74
552.5000	-5.10945	-0.000906077	0.867026	367.352
552.0000	-4.72832	-0.000928975	0.864454	366.878
551.5000	-4.67815	-0.000938684	0.861471	366.414
551.0000	-5.18784	-0.000964839	0.858361	365.931
550.5000	-4.88487	-0.000957757	0.855079	365.413
550.0000	-4.54149	-0.00095827	0.851803	364.89
549.5000	-4.73555	-0.000975712	0.848676	364.383
549.0000	-4.5027	-0.000981712	0.84538	363.871
548.5000	-4.35415	-0.000978015	0.842218	363.389
548.0000	-4.72888	-0.000986942	0.838912	362.875
547.5000	-4.50038	-0.00100153	0.836071	362.42
547.0000	-4.72276	-0.00101011	0.833228	361.946
546.5000	-5.30057	-0.00104376	0.831164	361.551
546.0000	-5.4565	-0.000997585	0.82931	361.201
545.5000	-5.61549	-0.000988552	0.827546	360.858
545.0000	-5.22737	-0.000977048	0.825907	360.59
544.5000	-5.43652	-0.000971753	0.824817	360.341
544.0000	-5.26616	-0.000972834	0.824094	360.151
543.5000	-5.21611	-0.000953641	0.823708	360.004
543.0000	-5.20216	-0.00097614	0.823678	359.878
542.5000	-5.08056	-0.000957759	0.824084	359.813
542.0000	-5.4172	-0.000953145	0.825195	359.785
541.5000	-5.76129	-0.000911669	0.826572	359.815
541.0000	-6.05749	-0.000880051	0.828254	359.876
540.5000	-6.65207	-0.00090656	0.830533	359.995
540.0000	-6.53122	-0.000872626	0.833171	360.143
539.5000	-6.21512	-0.000883295	0.836164	360.345
539.0000	-6.2688	-0.000876512	0.839661	360.612
538.5000	-6.24793	-0.000873636	0.843467	360.921
538.0000	-6.65892	-0.000887085	0.847268	361.234
537.5000	-7.25205	-0.000904885	0.851799	361.613
537.0000	-7.58398	-0.000963717	0.857055	362.042
536.5000	-7.85649	-0.000946057	0.862203	362.477
536.0000	-7.90967	-0.000953782	0.867717	362.963
535.5000	-8.04582	-0.000964985	0.873347	363.464
535.0000	-8.16882	-0.000952169	0.879857	364.033
534.5000	-8.24037	-0.000949509	0.886489	364.576
534.0000	-8.29929	-0.00095219	0.8931	365.171
533.5000	-8.32657	-0.000998545	0.899865	365.793
533.0000	-8.4551	-0.00100025	0.906713	366.409
532.5000	-8.44648	-0.00102223	0.913949	367.06
532.0000	-8.2223	-0.000995407	0.921473	367.746
531.5000	-8.23739	-0.00101438	0.929194	368.451
531.0000	-8.09771	-0.00104247	0.937116	369.183
530.5000	-7.90841	-0.00103915	0.944879	369.9
530.0000	-7.86522	-0.00103974	0.953305	370.662
529.5000	-7.44124	-0.00104431	0.961067	371.391
529.0000	-7.32404	-0.0010569	0.968396	372.069
528.5000	-7.00601	-0.00105494	0.975526	372.734
528.0000	-6.48123	-0.00109875	0.982371	373.376
527.5000	-6.39351	-0.00109721	0.989457	374.023
527.0000	-6.16204	-0.00112679	0.997323	374.729
526.5000	-6.0268	-0.00114212	1.00454	375.387
526.0000	-5.85205	-0.00117108	1.01205	376.074
525.5000	-5.33441	-0.00117462	1.01939	376.729
525.0000	-4.87825	-0.00119725	1.0262	377.36
524.5000	-4.4852	-0.00122742	1.03261	377.935
524.0000	-3.83353	-0.00125686	1.03823	378.433
523.5000	-3.78409	-0.00130083	1.04408	378.965
523.0000	-3.27492	-0.00130637	1.04978	379.451
522.5000	-3.14093	-0.00132203	1.05533	379.918
522.0000	-2.85779	-0.00131983	1.0607	380.375
521.5000	-2.34719	-0.00137189	1.06566	380.805
521.0000	-2.16666	-0.00138553	1.0703	381.202
520.5000	-1.48367	-0.00137121	1.07471	381.572
520.0000	-1.46847	-0.00136029	1.07878	381.896
519.5000	-1.14804	-0.0013829	1.08278	382.213
519.0000	-0.531218	-0.00140107	1.08683	382.513
518.5000	-0.461998	-0.00140124	1.09033	382.782
518.0000	0.242356	-0.00143414	1.09396	383.066
517.5000	0.783325	-0.00143948	1.09756	383.344
517.0000	0.926692	-0.00143181	1.10125	383.596
516.5000	1.73819	-0.00141597	1.10453	383.831
516.0000	2.31264	-0.00141988	1.10778	384.07
515.5000	2.4998	-0.00141718	1.11075	384.295
515.0000	2.75401	-0.00144018	1.11329	384.481
514.5000	2.96172	-0.00144446	1.11573	384.661
514.0000	3.04121	-0.00144621	1.11794	384.815
513.5000	3.7287	-0.00142428	1.12029	384.968
513.0000	4.31558	-0.00147191	1.12273	385.129
512.5000	4.79905	-0.0014592	1.12501	385.298
512.0000	5.19265	-0.00149781	1.12744	385.458
511.5000	5.10308	-0.00152293	1.12964	385.607
511.0000	5.10773	-0.00152548	1.1315	385.725
510.5000	5.53322	-0.00154034	1.1333	385.832
510.0000	5.52944	-0.00156863	1.13506	385.926
509.5000	5.34469	-0.00159266	1.13667	385.992
509.0000	5.74047	-0.00162271	1.13809	386.041
508.5000	5.51311	-0.00165772	1.1392	386.047
508.0000	5.38926	-0.00170853	1.14064	386.06
507.5000	6.00588	-0.00170954	1.14211	386.069
507.0000	6.52135	-0.00169507	1.14362	386.081
506.5000	6.33751	-0.00170926	1.14507	386.091
506.0000	6.57273	-0.00170613	1.14596	386.079
505.5000	6.4826	-0.00172944	1.14672	386.06
505.0000	6.18179	-0.00172881	1.14736	386.038
504.5000	6.42647	-0.001719	1.1481	385.989
504.0000	6.52712	-0.00173132	1.1488	385.911
503.5000	6.75356	-0.00172238	1.14892	385.809
503.0000	7.7128	-0.00173072	1.14887	385.676
502.5000	8.01182	-0.00171976	1.14893	385.547
502.0000	8.82276	-0.00170737	1.14857	385.399
501.5000	8.99248	-0.00172601	1.14803	385.217
501.0000	8.88211	-0.00173446	1.14735	385.008
500.5000	9.10099	-0.00173609	1.14627	384.742
500.0000	9.54532	-0.00171364	1.14509	384.415
499.5000	9.43103	-0.00171902	1.14307	383.986
499.0000	9.62564	-0.00172829	1.14006	383.394
498.5000	9.79455	-0.0017281	1.13678	382.694
498.0000	10.3143	-0.00173877	1.13329	381.867
497.5000	10.5704	-0.00173053	1.13024	380.901
497.0000	10.8711	-0.00175469	1.12821	379.97
496.5000	11.3844	-0.00176341	1.12827	379.166
496.0000	11.9857	-0.00174153	1.1295	378.603
495.5000	12.2341	-0.00174269	1.1301	378.149
495.0000	12.0644	-0.00172925	1.12942	377.751
494.5000	12.2966	-0.00172374	1.12786	377.344
494.0000	12.3874	-0.0017308	1.12619	376.971
493.5000	12.6148	-0.0017188	1.12437	376.56
493.0000	13.1666	-0.00168199	1.12267	376.199
492.5000	13.2695	-0.00167588	1.12112	375.85
492.0000	13.9237	-0.00168142	1.11925	375.476
491.5000	15.0705	-0.00165643	1.11756	375.17
491.0000	15.6537	-0.00165536	1.11577	374.883
490.5000	15.7881	-0.00168629	1.11415	374.63
490.0000	16.4961	-0.00168747	1.11254	374.435
489.5000	16.8272	-0.00168369	1.11066	374.27
489.0000	17.6608	-0.00168519	1.10742	374.023
488.5000	17.8859	-0.00168457	1.10232	373.591
488.0000	18.212	-0.00169349	1.09577	372.886
487.5000	18.8705	-0.00169774	1.08972	371.996
487.0000	19.0976	-0.0017152	1.08464	371.053
486.5000	19.8223	-0.00173415	1.07959	369.974
486.0000	20.1135	-0.00172928	1.07569	368.968
485.5000	20.5023	-0.00171529	1.07348	368.075
485.0000	20.6089	-0.00174319	1.07227	367.307
484.5000	20.9572	-0.00176477	1.07035	366.632
484.0000	21.3475	-0.0017621	1.06718	365.992
483.5000	21.0237	-0.0017697	1.06361	365.422
483.0000	21.2803	-0.00175431	1.05952	364.849
482.5000	21.2073	-0.00178382	1.05601	364.365
482.0000	21.3296	-0.00175278	1.05216	363.91
481.5000	21.5419	-0.0017339	1.04796	363.461
481.0000	21.6896	-0.00172644	1.04361	363.039
480.5000	21.7048	-0.00172733	1.03954	362.651
480.0000	22.5012	-0.00170668	1.03488	362.225
479.5000	23.1222	-0.0017002	1.02862	361.682
479.0000	23.4736	-0.00169524	1.01958	360.816
478.5000	23.5954	-0.00170781	1.01095	359.778
478.0000	23.4305	-0.00170586	1.00549	358.754
477.5000	23.6576	-0.00169925	1.00377	358.04
477.0000	23.6157	-0.00168336	1.00053	357.381
476.5000	24.2952	-0.00168128	0.991696	356.366
476.0000	24.4147	-0.00164347	0.981544	355.127
475.5000	24.6246	-0.00164632	0.971616	353.67
475.0000	25.1304	-0.00163291	0.962417	352.034
474.5000	25.1723	-0.0016313	0.954236	350.352
474.0000	25.6812	-0.00158658	0.945452	348.495
473.5000	25.6785	-0.00158762	0.936002	346.372
473.0000	25.6037	-0.00157622	0.927729	344.165
472.5000	25.967	-0.0015717	0.921963	342.034
472.0000	25.5159	-0.00155076	0.919772	340.418
471.5000	25.4521	-0.00152423	0.918435	339.174
471.0000	25.4792	-0.00150229	0.917106	338.467
470.5000	25.4486	-0.00147484	0.916287	338.103
470.0000	25.7791	-0.00144363	0.912833	337.857
469.5000	25.9009	-0.00143158	0.903867	337.316
469.0000	26.2067	-0.00141802	0.890481	336.253
468.5000	26.3411	-0.00140994	0.879632	335.007
468.0000	26.0111	-0.00140347	0.872376	333.842
467.5000	26.1272	-0.00136765	0.86767	332.946
467.0000	25.9695	-0.00139765	0.86417	332.315
466.5000	25.6528	-0.00138354	0.860455	331.905
466.0000	25.8504	-0.00136246	0.85615	331.686
465.5000	25.4673	-0.00134872	0.851788	331.715
465.0000	25.3293	-0.00133505	0.846578	331.973
464.5000	25.354	-0.00134639	0.838241	332.19
464.0000	25.1981	-0.00134403	0.825895	332.018
463.5000	25.1181	-0.00135682	0.81238	331.46
463.0000	24.6155	-0.00133116	0.800349	330.689
462.5000	24.6773	-0.00130638	0.790685	329.88
462.0000	24.5214	-0.00127894	0.782508	329.096
461.5000	24.2749	-0.00127298	0.775506	328.477
461.0000	24.08	-0.00126591	0.769109	328.008
460.5000	24.0037	-0.00121659	0.761935	327.633
460.0000	23.9142	-0.00119838	0.754361	327.314
459.5000	23.7003	-0.00120105	0.746073	326.997
459.0000	23.7376	-0.00116529	0.736127	326.559
458.5000	23.8986	-0.00113447	0.725699	325.983
458.0000	23.7973	-0.00111967	0.714568	325.197
457.5000	23.8278	-0.00109508	0.703255	324.184
457.0000	23.81	-0.00106021	0.6938	323.138
456.5000	23.5712	-0.001022	0.686333	322.198
456.0000	23.2613	-0.000976784	0.677189	321.213
455.5000	23.1667	-0.000961847	0.665226	319.948
455.0000	22.8071	-0.000936766	0.655601	318.725
454.5000	22.4712	-0.000946908	0.649946	317.774
454.0000	21.9153	-0.000934048	0.643996	317.026
453.5000	21.7368	-0.000899412	0.635675	316.331
453.0000	21.5097	-0.000886063	0.626841	315.615
452.5000	21.3379	-0.000865399	0.618278	314.888
452.0000	20.9007	-0.000871798	0.609411	314.126
451.5000	20.5757	-0.000831813	0.600612	313.336
451.0000	20.318	-0.000807825	0.592082	312.562
450.5000	19.7781	-0.000781087	0.583126	311.731
450.0000	19.3321	-0.000765404	0.575471	311.008
449.5000	19.0847	-0.000738539	0.569351	310.479
449.0000	18.7739	-0.000721537	0.562997	310.057
448.5000	18.4824	-0.000709966	0.553916	309.498
448.0000	18.2952	-0.000712298	0.54518	308.884
447.5000	18.0821	-0.0006895	0.539827	308.481
447.0000	17.6929	-0.000680715	0.535703	308.322
446.5000	17.7653	-0.000653842	0.528592	308.095
446.0000	17.5331	-0.00063374	0.517394	307.546
445.5000	17.0932	-0.000613858	0.507047	306.799
445.0000	16.6941	-0.000595246	0.49845	305.963
444.5000	16.2809	-0.00057433	0.489974	305.099
444.0000	15.8171	-0.000543645	0.482252	304.24
443.5000	15.4811	-0.000534325	0.474472	303.31
443.0000	15.3861	-0.000520716	0.468279	302.53
442.5000	14.7168	-0.000522687	0.462239	301.794
442.0000	14.5956	-0.000509323	0.457012	301.175
441.5000	14.1631	-0.000497381	0.450834	300.51
441.0000	13.896	-0.000480783	0.445014	299.896
440.5000	13.5649	-0.000479467	0.439052	299.288
440.0000	13.2949	-0.0004608	0.432746	298.659
439.5000	12.8994	-0.000438322	0.426302	298.016
439.0000	12.5603	-0.000417918	0.419475	297.347
438.5000	12.1611	-0.000383974	0.41244	296.663
438.0000	11.8499	-0.000364883	0.405242	295.983
437.5000	11.4792	-0.00036196	0.39851	295.335
437.0000	11.433	-0.000350143	0.391737	294.69
436.5000	11.3372	-0.00033907	0.386096	294.151
436.0000	11.1367	-0.000328639	0.381004	293.668
435.5000	11.1353	-0.000311092	0.375822	293.216
435.0000	10.9742	-0.000282997	0.369873	292.743
434.5000	10.6509	-0.000266577	0.363464	292.244
434.0000	10.5314	-0.000233746	0.357092	291.712
433.5000	10.162	-0.000229379	0.35144	291.203
433.0000	9.92936	-0.000211709	0.345663	290.658
432.5000	9.79373	-0.000194908	0.340342	290.14
432.0000	9.6714	-0.000182171	0.334825	289.583
431.5000	9.49871	-0.000173144	0.329358	289.034
431.0000	9.32026	-0.000157646	0.323664	288.481
430.5000	9.14313	-0.000150896	0.318178	287.928
430.0000	8.89917	-0.000148364	0.313382	287.418
429.5000	8.55041	-0.000129367	0.308317	286.894
429.0000	8.67188	-9.50502E-005	0.303267	286.362
428.5000	8.34164	-8.52109E-005	0.298439	285.83
428.0000	7.90593	-8.18283E-005	0.293657	285.29
427.5000	7.58424	-8.29657E-005	0.289198	284.809
427.0000	7.34532	-7.27264E-005	0.284552	284.32
426.5000	7.01759	-5.95273E-005	0.279986	283.838
426.0000	6.98431	-5.28503E-005	0.275417	283.315
425.5000	6.72768	-5.84907E-005	0.270833	282.773
425.0000	6.6169	-4.48663E-005	0.266183	282.206
424.5000	6.43068	-3.69423E-005	0.261869	281.617
424.0000	6.39912	-2.8642E-005	0.258552	281.086
423.5000	6.14937	-1.76201E-005	0.25564	280.631
423.0000	5.97991	-8.37972E-006	0.252337	280.212
422.5000	5.74206	-5.56936E-006	0.249162	279.83
422.0000	5.70507	-7.23893E-006	0.245993	279.464
421.5000	5.41209	1.16025E-006	0.242499	279.109
421.0000	5.45094	1.76916E-005	0.239184	278.775
420.5000	5.32818	1.70828E-005	0.23598	278.438
420.0000	5.23705	3.51247E-005	0.232501	278.086
419.5000	5.17913	5.29023E-005	0.229009	277.73
419.0000	4.96039	5.33656E-005	0.225952	277.394
418.5000	4.78021	6.19285E-005	0.223308	277.105
418.0000	4.80535	7.05615E-005	0.22093	276.824
417.5000	4.75026	8.84904E-005	0.218719	276.554
417.0000	4.60198	9.9423E-005	0.216825	276.327
416.5000	4.4784	0.000105504	0.215191	276.161
416.0000	4.18646	0.000113217	0.213091	276.013
415.5000	4.15133	0.000131674	0.210141	275.812
415.0000	4.04448	0.000134608	0.207625	275.589
414.5000	4.03793	0.000147356	0.205436	275.333
414.0000	3.82797	0.000157758	0.203228	275.079
413.5000	3.79417	0.000161366	0.201112	274.823
413.0000	3.73838	0.00016525	0.199376	274.589
412.5000	3.36831	0.000163502	0.197889	274.404
412.0000	3.23434	0.00017121	0.19653	274.234
411.5000	2.98229	0.000170452	0.195266	274.065
411.0000	2.84521	0.000173768	0.193859	273.905
410.5000	2.71302	0.000187777	0.192672	273.77
410.0000	2.64614	0.000174899	0.191532	273.651
409.5000	2.40007	0.000180424	0.190669	273.552
409.0000	2.24812	0.000187814	0.18974	273.471
408.5000	2.19387	0.000188068	0.18852	273.381
408.0000	1.96436	0.000184732	0.187014	273.278
407.5000	1.92139	0.000187476	0.185508	273.169
407.0000	1.76906	0.000182259	0.184014	273.055
406.5000	1.71813	0.000189695	0.182778	272.938
406.0000	1.50885	0.00017945	0.181729	272.824
405.5000	1.46877	0.000196966	0.180607	272.693
405.0000	1.40301	0.000206686	0.179748	272.552
404.5000	1.14147	0.000201805	0.178752	272.391
404.0000	1.17739	0.000209594	0.177781	272.204
403.5000	1.36374	0.000190118	0.176872	272.004
403.0000	1.20659	0.000183279	0.17597	271.783
402.5000	1.26168	0.000193421	0.175508	271.559
402.0000	1.17415	0.00020456	0.174954	271.331
401.5000	1.23166	0.000213628	0.174601	271.098
401.0000	1.35823	0.000215243	0.174174	270.89
400.5000	1.24806	0.000219595	0.173838	270.695
400.0000	1.18417	0.000221469	0.173769	270.551
399.5000	1.12769	0.000223555	0.17385	270.421
399.0000	1.13915	0.000229375	0.173944	270.323
398.5000	1.14144	0.000235202	0.17392	270.241
398.0000	1.0991	0.000233199	0.173825	270.171
397.5000	1.08532	0.000234246	0.173879	270.133
397.0000	0.960351	0.000226318	0.174027	270.121
396.5000	1.01377	0.000231291	0.174207	270.145
396.0000	0.980006	0.000239408	0.174754	270.196
395.5000	0.939284	0.000243761	0.174884	270.259
395.0000	0.867245	0.000265019	0.175098	270.359
394.5000	0.850648	0.000265788	0.17551	270.496
394.0000	0.953429	0.000271415	0.176019	270.664
393.5000	0.984521	0.000259659	0.176226	270.832
393.0000	0.906667	0.000256287	0.176493	271.025
392.5000	0.794267	0.000249879	0.176701	271.205
392.0000	0.855701	0.000249608	0.176732	271.363
391.5000	0.969865	0.000248954	0.17691	271.494
391.0000	1.00696	0.000247734	0.177354	271.622
390.5000	1.07982	0.000250269	0.177801	271.749
390.0000	1.12191	0.00024669	0.178248	271.865
389.5000	1.18546	0.000246453	0.178882	271.977
389.0000	1.16288	0.000248858	0.179448	272.07
388.5000	1.09622	0.000260672	0.180174	272.162
388.0000	1.13216	0.000262202	0.180829	272.26
387.5000	1.13154	0.000257244	0.181475	272.36
387.0000	1.03445	0.000258298	0.182645	272.449
386.5000	1.15073	0.00026013	0.183747	272.531
386.0000	1.04865	0.00024966	0.184601	272.601
385.5000	1.00741	0.000261843	0.185753	272.675
385.0000	0.972106	0.000263276	0.186911	272.748
384.5000	1.02372	0.000274409	0.188289	272.823
384.0000	1.02902	0.000273386	0.189757	272.903
383.5000	0.889474	0.000276751	0.191063	272.976
383.0000	0.923827	0.000278525	0.192478	273.066
382.5000	0.966149	0.000272883	0.193696	273.141
382.0000	0.85049	0.000277182	0.195316	273.222
381.5000	0.639421	0.000269699	0.19685	273.315
381.0000	0.686602	0.000269276	0.198263	273.407
380.5000	0.716404	0.000267671	0.199659	273.511
380.0000	0.704126	0.000266492	0.201094	273.62
379.5000	0.724752	0.000258798	0.202565	273.718
379.0000	0.727065	0.000253535	0.203941	273.804
378.5000	0.738384	0.000261595	0.205086	273.903
378.0000	0.605622	0.000268647	0.205959	273.987
377.5000	0.702684	0.000262072	0.206974	274.077
377.0000	0.776654	0.000244491	0.207809	274.148
376.5000	0.861646	0.000242186	0.208795	274.218
376.0000	0.7321	0.000229425	0.20951	274.267
375.5000	0.90618	0.000232811	0.210062	274.304
375.0000	1.08295	0.000222053	0.210645	274.349
374.5000	1.07605	0.000228672	0.211321	274.38
374.0000	1.1987	0.000229619	0.21197	274.414
373.5000	1.35592	0.000224028	0.212493	274.444
373.0000	1.43008	0.000222506	0.212782	274.47
372.5000	1.41704	0.000231349	0.213324	274.502
372.0000	1.45496	0.000220327	0.213984	274.523
371.5000	1.38045	0.00020995	0.214462	274.532
371.0000	1.29444	0.000210759	0.214828	274.555
370.5000	1.25363	0.00021228	0.215379	274.601
370.0000	1.22366	0.000202869	0.215993	274.641
369.5000	1.17987	0.000188661	0.216714	274.696
369.0000	1.19525	0.000188419	0.217417	274.752
368.5000	1.02138	0.000192962	0.218225	274.821
368.0000	0.996247	0.000194534	0.218743	274.887
367.5000	1.05044	0.000188925	0.219382	274.972
367.0000	1.00124	0.000187152	0.220273	275.067
366.5000	0.845193	0.000191461	0.221279	275.169
366.0000	0.732453	0.000178983	0.222288	275.278
365.5000	0.552519	0.000181512	0.22311	275.378
365.0000	0.412022	0.000172548	0.224019	275.47
364.5000	0.526192	0.000168818	0.225088	275.566
364.0000	0.529835	0.000160085	0.226221	275.672
363.5000	0.595699	0.000156971	0.227282	275.794
363.0000	0.565318	0.000158923	0.228225	275.913
362.5000	0.537267	0.000144553	0.229009	276.014
362.0000	0.454144	0.000148037	0.230083	276.131
361.5000	0.409429	0.000155819	0.231151	276.245
361.0000	0.244207	0.000152222	0.232055	276.336
360.5000	0.200434	0.000152232	0.23292	276.447
360.0000	0.0293837	0.000132949	0.233693	276.547
359.5000	-0.226581	0.000123588	0.234663	276.644
359.0000	-0.425925	0.000138171	0.235651	276.731
358.5000	-0.570484	0.000127651	0.236546	276.82
358.0000	-0.558925	0.000114741	0.23702	276.903
357.5000	-0.682263	0.000100886	0.237679	277.002
357.0000	-0.684172	9.1537E-005	0.238309	277.091
356.5000	-0.658133	9.49299E-005	0.238992	277.18
356.0000	-0.916582	0.000100204	0.239618	277.264
355.5000	-1.09142	9.85562E-005	0.240043	277.346
355.0000	-1.12873	9.66025E-005	0.24044	277.432
354.5000	-1.29622	9.74604E-005	0.241139	277.517
354.0000	-1.30292	9.1399E-005	0.241803	277.599
353.5000	-1.2938	8.69628E-005	0.242391	277.679
353.0000	-1.35542	7.48311E-005	0.242865	277.766
352.5000	-1.35991	6.58592E-005	0.243399	277.866
352.0000	-1.20966	5.53691E-005	0.244236	277.962
351.5000	-1.1106	5.29347E-005	0.245073	278.064
351.0000	-1.11661	4.23623E-005	0.245821	278.165
350.5000	-1.10117	2.69996E-005	0.246371	278.267
350.0000	-1.10979	2.88331E-005	0.246711	278.357
349.5000	-1.17359	2.67252E-005	0.247508	278.451
349.0000	-1.2204	1.99957E-005	0.248229	278.55
348.5000	-1.21796	2.64554E-005	0.24906	278.657
348.0000	-1.33088	6.29361E-006	0.249757	278.76
347.5000	-1.19586	-1.1554E-005	0.250284	278.859
347.0000	-1.1722	-5.96719E-006	0.250906	278.961
346.5000	-1.30258	-1.32719E-005	0.251516	279.054
346.0000	-1.29569	-1.67543E-005	0.252307	279.158
345.5000	-1.3385	-3.38688E-005	0.25309	279.254
345.0000	-1.35731	-4.65144E-005	0.253849	279.365
344.5000	-1.3286	-5.76207E-005	0.254636	279.463
344.0000	-1.39996	-4.5451E-005	0.255494	279.566
343.5000	-1.45114	-4.73058E-005	0.256313	279.666
343.0000	-1.49836	-4.24074E-005	0.257233	279.759
342.5000	-1.51243	-4.92255E-005	0.258022	279.853
342.0000	-1.3586	-6.18856E-005	0.259094	279.961
341.5000	-1.3337	-6.77698E-005	0.260133	280.074
341.0000	-1.48994	-6.61316E-005	0.261302	280.179
340.5000	-1.49337	-7.94827E-005	0.262516	280.285
340.0000	-1.34454	-8.97401E-005	0.263631	280.393
339.5000	-1.32559	-8.18389E-005	0.264699	280.505
339.0000	-1.44578	-9.61839E-005	0.265975	280.618
338.5000	-1.27637	-0.000104833	0.267135	280.733
338.0000	-1.15877	-0.000111172	0.268214	280.848
337.5000	-1.02346	-0.000122429	0.269478	280.976
337.0000	-1.1933	-0.000119885	0.2707	281.098
336.5000	-1.14432	-0.000123066	0.271795	281.208
336.0000	-1.22828	-0.000142426	0.273098	281.342
335.5000	-0.938824	-0.000154059	0.274089	281.459
335.0000	-1.05439	-0.000158742	0.275092	281.59
334.5000	-1.00009	-0.000170998	0.276322	281.734
334.0000	-1.05382	-0.000174643	0.277551	281.87
333.5000	-1.20582	-0.000185697	0.278704	282.012
333.0000	-1.01597	-0.000203092	0.279906	282.161
332.5000	-0.827621	-0.000198033	0.281006	282.308
332.0000	-0.511634	-0.000216534	0.282119	282.448
331.5000	-0.470491	-0.000223419	0.283177	282.589
331.0000	-0.228021	-0.000247801	0.284515	282.755
330.5000	-0.119768	-0.00024689	0.285645	282.892
330.0000	0.0467707	-0.00026887	0.287053	283.049
329.5000	0.223255	-0.000286157	0.288587	283.208
329.0000	0.370941	-0.000294188	0.290094	283.375
328.5000	0.515125	-0.000295029	0.291583	283.536
328.0000	0.737916	-0.000306272	0.292888	283.669
327.5000	0.982411	-0.00029264	0.294361	283.806
327.0000	0.871314	-0.000303953	0.295888	283.934
326.5000	0.956603	-0.000324357	0.297795	284.095
326.0000	1.23264	-0.000326036	0.2996	284.27
325.5000	1.29395	-0.000335182	0.301285	284.449
325.0000	1.45952	-0.000348274	0.302959	284.622
324.5000	1.56065	-0.000347944	0.304614	284.799
324.0000	1.67739	-0.000369381	0.306315	284.98
323.5000	1.55839	-0.000375704	0.307991	285.179
323.0000	1.74999	-0.000380568	0.309877	285.381
322.5000	1.42668	-0.000392107	0.312011	285.584
322.0000	1.43812	-0.000404238	0.314106	285.794
321.5000	1.45265	-0.000420368	0.316142	286.003
321.0000	1.32666	-0.000421289	0.31814	286.227
320.5000	1.47895	-0.000436979	0.31989	286.431
320.0000	1.58172	-0.000462613	0.321842	286.643
319.5000	1.59412	-0.000479024	0.323743	286.857
319.0000	1.45885	-0.000503381	0.325728	287.095
318.5000	1.49134	-0.000529932	0.32782	287.343
318.0000	1.75829	-0.000549258	0.329838	287.568
317.5000	1.76307	-0.00056787	0.331967	287.767
317.0000	1.92065	-0.000577085	0.334464	287.983
316.5000	2.06508	-0.000603172	0.336682	288.187
316.0000	2.06148	-0.000617247	0.338913	288.409
315.5000	2.27486	-0.000612984	0.341195	288.635
315.0000	2.39452	-0.000614897	0.343732	288.876
314.5000	2.32523	-0.000623283	0.34613	289.114
314.0000	2.56452	-0.000641283	0.348516	289.369
313.5000	2.68257	-0.000645061	0.351	289.636
313.0000	2.7555	-0.000636762	0.353381	289.904
312.5000	2.80562	-0.000646759	0.355895	290.174
312.0000	2.90664	-0.000658522	0.358746	290.47
311.5000	2.95211	-0.000662574	0.361502	290.763
311.0000	3.22243	-0.000662207	0.364448	291.077
310.5000	3.2781	-0.000687589	0.367272	291.407
310.0000	3.60416	-0.000669064	0.370104	291.733
309.5000	3.65662	-0.000667801	0.37293	292.083
309.0000	3.62898	-0.000690356	0.376207	292.479
308.5000	3.74253	-0.000687021	0.379628	292.884
308.0000	3.87082	-0.000676983	0.383292	293.272
307.5000	3.86977	-0.000687461	0.387663	293.737
307.0000	3.89033	-0.000721801	0.391478	294.168
306.5000	3.98118	-0.000739334	0.395809	294.658
306.0000	4.18959	-0.000749571	0.400352	295.14
305.5000	4.45372	-0.000765151	0.405325	295.66
305.0000	4.42842	-0.000795798	0.410409	296.177
304.5000	4.53773	-0.000836417	0.416225	296.765
304.0000	4.41541	-0.000853089	0.421967	297.378
303.5000	4.49384	-0.000873748	0.427802	297.988
303.0000	4.60297	-0.000909601	0.434342	298.676
302.5000	4.50696	-0.000943779	0.441222	299.385
302.0000	4.69629	-0.000930946	0.448589	300.135
301.5000	4.72355	-0.000955147	0.455841	300.893
301.0000	4.75904	-0.000988747	0.463285	301.655
300.5000	4.61879	-0.000997743	0.470197	302.356
300.0000	4.62762	-0.00103888	0.478216	303.19
299.5000	4.79131	-0.00106255	0.486051	304.011
299.0000	4.80917	-0.00107778	0.493856	304.817
298.5000	4.58086	-0.001084	0.502066	305.655
298.0000	4.67998	-0.00108455	0.509559	306.425
297.5000	4.9108	-0.00109437	0.517125	307.237
297.0000	4.86037	-0.00108794	0.523918	307.957
296.5000	5.00476	-0.00107665	0.530352	308.653
296.0000	5.15965	-0.00105421	0.536967	309.346
295.5000	5.21457	-0.00105434	0.543859	310.011
295.0000	5.34564	-0.00104347	0.550073	310.599
294.5000	5.63492	-0.00100767	0.555693	311.189
294.0000	5.64301	-0.000990787	0.561223	311.804
293.5000	5.59214	-0.000996886	0.565678	312.302
293.0000	5.62597	-0.000979122	0.570332	312.839
292.5000	5.66199	-0.000956403	0.575004	313.385
292.0000	5.67865	-0.000938268	0.578859	313.877
291.5000	5.61976	-0.00090279	0.582721	314.362
291.0000	5.63861	-0.000883026	0.586288	314.816
290.5000	5.85157	-0.000854669	0.589973	315.282
290.0000	5.75031	-0.000819404	0.593376	315.722
289.5000	5.69119	-0.000790196	0.596567	316.14
289.0000	5.58236	-0.000756495	0.599786	316.555
288.5000	5.41337	-0.000723135	0.603164	317.015
288.0000	5.34174	-0.000707039	0.606347	317.451
287.5000	5.35712	-0.000687924	0.609527	317.913
287.0000	5.29948	-0.000638017	0.612692	318.419
286.5000	4.92896	-0.000613741	0.615692	318.912
286.0000	4.73835	-0.00061881	0.618871	319.381
285.5000	4.74291	-0.000602786	0.62244	319.836
285.0000	4.78239	-0.000556699	0.626254	320.325
284.5000	4.58637	-0.000538957	0.62972	320.784
284.0000	4.38162	-0.000514461	0.633456	321.274
283.5000	4.41873	-0.000472205	0.63744	321.78
283.0000	4.56853	-0.000460447	0.641097	322.255
282.5000	4.48386	-0.000430106	0.644839	322.785
282.0000	4.5724	-0.000409798	0.649011	323.352
281.5000	4.55027	-0.00039501	0.653104	323.898
281.0000	4.50679	-0.000364685	0.657662	324.476
280.5000	4.61272	-0.000350931	0.662519	325.098
280.0000	4.76561	-0.000329349	0.66788	325.74
279.5000	4.68107	-0.000304725	0.673353	326.422
279.0000	4.47369	-0.000259114	0.678829	327.103
278.5000	4.71722	-0.000247142	0.684808	327.853
278.0000	4.81477	-0.000205028	0.691556	328.689
277.5000	4.71727	-0.000163358	0.698111	329.484
277.0000	4.78341	-0.000137319	0.70535	330.374
276.5000	4.85952	-0.000122563	0.713078	331.306
276.0000	4.70705	-0.000102959	0.72037	332.174
275.5000	4.95989	-7.43631E-005	0.72905	333.195
275.0000	4.58521	-6.5249E-005	0.738123	334.259
274.5000	4.22732	-2.48824E-005	0.747715	335.383
274.0000	4.01048	-1.44578E-006	0.758434	336.634
273.5000	4.07947	3.05014E-005	0.768355	337.811
273.0000	3.94627	3.35713E-005	0.779623	339.127
272.5000	3.86265	4.21603E-005	0.791212	340.497
272.0000	3.78587	9.50421E-005	0.803413	341.941
271.5000	3.38093	0.000118712	0.81691	343.564
271.0000	3.63215	0.000120516	0.830435	345.178
270.5000	3.70693	0.0001457	0.844579	346.872
270.0000	3.28387	0.000195688	0.859371	348.64
269.5000	2.92485	0.000199159	0.875002	350.506
269.0000	3.12023	0.00023591	0.890377	352.36
268.5000	2.7925	0.000286573	0.907206	354.412
268.0000	2.37873	0.000314836	0.92456	356.549
267.5000	2.25398	0.000305561	0.94265	358.788
267.0000	1.78575	0.000336379	0.962434	361.242
266.5000	1.97461	0.00040018	0.98291	363.799
266.0000	2.36744	0.000399235	1.00197	366.19
265.5000	2.4545	0.000425835	1.0225	368.774
265.0000	1.94166	0.000479656	1.04446	371.549
264.5000	2.25254	0.00049643	1.0655	374.236
264.0000	1.70655	0.000461377	1.0866	376.942
263.5000	0.886415	0.000444878	1.10855	379.793
263.0000	0.864792	0.000477723	1.12821	382.374
262.5000	0.548246	0.000441041	1.14985	385.226
262.0000	-0.0739275	0.000402337	1.17034	387.942
261.5000	0.165789	0.000377871	1.19027	390.634
261.0000	0.0464809	0.000418672	1.20902	393.195
260.5000	-0.638531	0.000375939	1.22859	395.871
260.0000	0.255464	0.00039567	1.24795	398.545
259.5000	0.758949	0.000403571	1.26733	401.233
259.0000	0.578239	0.000382874	1.28621	403.902
258.5000	0.849329	0.000340241	1.30494	406.566
258.0000	0.767897	0.000302501	1.32359	409.238
257.5000	0.804801	0.000238189	1.34134	411.773
257.0000	0.480154	0.000195858	1.36036	414.484
256.5000	0.485625	0.000189607	1.37831	417.084
256.0000	1.06303	0.000191301	1.39699	419.846
255.5000	2.19283	0.000156485	1.41573	422.647
255.0000	3.18356	7.15989E-005	1.4348	425.511
254.5000	3.65565	2.09595E-005	1.45319	428.257
254.0000	4.39731	1.45118E-006	1.47143	431.026
253.5000	5.97022	-1.42292E-005	1.49143	434.113
253.0000	6.67945	-4.92359E-005	1.50954	436.938
252.5000	7.74909	-0.000220238	1.53588	441.107
252.0000	8.3398	-0.000367477	1.55723	444.564
251.5000	8.40452	-0.0004737	1.57509	447.547
251.0000	9.79863	-0.000529097	1.59267	450.523
250.5000	10.8345	-0.000557038	1.60989	453.521
250.0000	12.1578	-0.000651529	1.62572	456.358

##### Extended Information
[Comments]
Sample name	JS187+JS190_5E-5_HEPES_ASPREP_0-100
Comment
User
Division
Company	Labo systeme complexes hors equilibre

[Detailed Information]
Creation date	3/20/2024 11:57 AM

Data array type	Linear data array * 4
Horizontal axis	Wavelength [nm]
Vertical axis(1)	CD [mdeg]
Vertical axis(2)	LD [dOD]
Vertical axis(3)	Abs
Vertical axis(4)	HT [V]
Start	700 nm
End	250 nm
Data interval	0.5 nm
Data points	901     

[Measurement Information]
Instrument name	CD Jasco
Model name	J-1500
Serial No.	A005261638

Detector	PM-539
Detector S/N	A0052PM539
  Lock-in amp.	X mode
  HT volt	Auto

Detector	EXPML-535
Detector S/N	A0001
  Lock-in amp.	X mode
  HT volt	Auto

Measurement date	3/20/2024 11:57 AM

Overload detect	1
Photometric mode	CD, LD, Abs, HT
Measure range	700 - 250 nm
Data pitch	0.5 nm
CD scale	200 mdeg/1.0 dOD
FL scale	200 mdeg/1.0 dOD
D.I.T.	1 sec
Bandwidth	1.00 nm
Start mode	Immediately
Scanning speed	500 nm/min
Baseline correction	Baseline
Shutter control	Auto


