TITLE	JS187+JS90_5E-5_HEPES_48h_0-100
DATA TYPE	
ORIGIN	JASCO
OWNER	
DATE	24/03/22
TIME	09:49:12
SPECTROMETER/DATA SYSTEM	
LOCALE	1033
RESOLUTION	
DELTAX	-0.5
XUNITS	NANOMETERS
YUNITS	CD [mdeg]
Y2UNITS	LD [dOD]
Y3UNITS	ABSORBANCE
Y4UNITS	HT [V]
FIRSTX	  700.0000
LASTX	  250.0000
NPOINTS	     901
FIRSTY	     1.12720
MAXY	    34.67238
MINY	   -41.27020
XYDATA
700.0000	1.1272	-0.000113452	0.127825	312.964
699.5000	1.31647	-0.000133487	0.12696	312.609
699.0000	1.26948	-0.000140376	0.125522	312.182
698.5000	1.29408	-0.000126264	0.123731	311.701
698.0000	1.20153	-0.000135905	0.121836	311.185
697.5000	1.39456	-0.000123927	0.120097	310.647
697.0000	1.26748	-0.000131108	0.118971	310.071
696.5000	1.32367	-0.000139581	0.117896	309.488
696.0000	1.41349	-0.000151912	0.11726	308.878
695.5000	1.44266	-0.000158605	0.116883	308.328
695.0000	1.52345	-0.000155948	0.117773	307.865
694.5000	1.72319	-0.000160381	0.119368	307.432
694.0000	1.92021	-0.000162995	0.121719	307.05
693.5000	1.89575	-0.000160375	0.124348	306.704
693.0000	2.07691	-0.000153149	0.126727	306.422
692.5000	2.15189	-0.000135421	0.12931	306.164
692.0000	2.25427	-0.000127573	0.132251	305.964
691.5000	2.16175	-0.000130239	0.134835	305.77
691.0000	2.30397	-0.000113358	0.137327	305.578
690.5000	2.30232	-0.000108837	0.139409	305.419
690.0000	2.54315	-8.84329E-005	0.141439	305.315
689.5000	2.51581	-8.65092E-005	0.144215	305.305
689.0000	2.72925	-5.87117E-005	0.147769	305.397
688.5000	2.99421	-5.85344E-005	0.152264	305.598
688.0000	2.88132	-6.65152E-005	0.157032	305.885
687.5000	2.90207	-4.66122E-005	0.161541	306.197
687.0000	3.05317	-4.81869E-005	0.164328	306.478
686.5000	2.81092	-3.92179E-005	0.165893	306.769
686.0000	2.52984	-4.024E-005	0.166277	307.025
685.5000	2.59159	-3.20089E-005	0.165911	307.287
685.0000	2.90067	-1.93765E-005	0.165306	307.533
684.5000	2.70385	-3.82633E-005	0.164723	307.761
684.0000	2.44	-2.50526E-005	0.164083	307.99
683.5000	2.35218	-3.85737E-005	0.163632	308.234
683.0000	2.61334	-2.31544E-005	0.163378	308.523
682.5000	2.72217	-2.36254E-005	0.16346	308.827
682.0000	2.82097	-7.02626E-006	0.16367	309.15
681.5000	2.78961	-3.22662E-005	0.163819	309.433
681.0000	2.62766	-4.88415E-005	0.163079	309.655
680.5000	2.44857	-7.08423E-005	0.161238	309.79
680.0000	2.60263	-3.68895E-005	0.158357	309.854
679.5000	2.5336	-2.5107E-005	0.155246	309.865
679.0000	2.51598	-2.6675E-005	0.152817	309.864
678.5000	2.50709	-3.51292E-005	0.150909	309.843
678.0000	2.72547	-2.43031E-005	0.149717	309.813
677.5000	2.75429	-1.30721E-005	0.149588	309.781
677.0000	2.47059	-2.73059E-006	0.149871	309.769
676.5000	2.34977	3.84467E-006	0.150396	309.76
676.0000	2.43043	9.52024E-007	0.150974	309.763
675.5000	2.76359	1.66472E-006	0.151586	309.759
675.0000	2.42727	-1.17275E-005	0.15228	309.773
674.5000	2.00894	-1.56384E-005	0.152762	309.787
674.0000	1.9831	-3.25285E-006	0.153726	309.812
673.5000	1.80654	1.09039E-005	0.15476	309.853
673.0000	2.2297	3.35771E-005	0.155881	309.909
672.5000	2.27055	4.76175E-005	0.156952	309.968
672.0000	2.40788	4.7612E-005	0.157708	310.024
671.5000	2.41627	6.11836E-005	0.158409	310.081
671.0000	2.3349	6.64108E-005	0.159158	310.164
670.5000	2.47312	6.54986E-005	0.159756	310.237
670.0000	2.83652	7.39983E-005	0.160386	310.306
669.5000	2.83087	6.34922E-005	0.160589	310.389
669.0000	3.07825	7.72834E-005	0.160715	310.472
668.5000	3.0049	6.91531E-005	0.160874	310.547
668.0000	3.02041	6.88971E-005	0.161333	310.66
667.5000	2.97708	8.05421E-005	0.161762	310.771
667.0000	2.96416	0.000108647	0.162178	310.883
666.5000	3.27455	0.000128217	0.162589	310.995
666.0000	3.44278	0.000125092	0.163082	311.121
665.5000	3.34774	0.000113183	0.163294	311.238
665.0000	3.07835	0.000122291	0.163177	311.346
664.5000	3.11574	0.000108516	0.163019	311.448
664.0000	2.92479	0.000106017	0.162719	311.537
663.5000	2.84485	7.59839E-005	0.162519	311.61
663.0000	3.02804	5.9378E-005	0.162106	311.67
662.5000	2.99717	7.72531E-005	0.161501	311.728
662.0000	2.81558	8.14372E-005	0.160715	311.766
661.5000	2.6696	7.89454E-005	0.160112	311.793
661.0000	2.67837	7.89908E-005	0.159608	311.8
660.5000	2.76708	9.3667E-005	0.159127	311.791
660.0000	2.82489	0.000103006	0.158352	311.76
659.5000	2.84393	9.44209E-005	0.157698	311.718
659.0000	2.68806	8.53287E-005	0.157398	311.664
658.5000	2.7351	8.2987E-005	0.156934	311.573
658.0000	2.60063	7.93349E-005	0.156042	311.444
657.5000	2.55869	6.81859E-005	0.155025	311.294
657.0000	2.60788	5.08427E-005	0.154227	311.132
656.5000	2.63346	7.6675E-005	0.153543	310.931
656.0000	2.39987	8.88209E-005	0.152948	310.738
655.5000	2.56599	0.000118077	0.152279	310.532
655.0000	2.59991	0.000143474	0.152123	310.34
654.5000	2.58553	0.000148178	0.152822	310.144
654.0000	2.26557	0.000156838	0.153789	309.967
653.5000	2.31945	0.000139976	0.154791	309.821
653.0000	2.33598	0.000133614	0.155859	309.691
652.5000	2.46097	0.000111409	0.157563	309.608
652.0000	2.71233	0.000120833	0.159477	309.556
651.5000	2.78455	0.000105808	0.161449	309.53
651.0000	3.04407	0.000109295	0.16274	309.529
650.5000	2.90328	0.000115706	0.164068	309.558
650.0000	2.91	0.000105544	0.165254	309.634
649.5000	2.931	0.000114701	0.167321	309.736
649.0000	3.18132	0.000121769	0.169005	309.851
648.5000	3.42355	0.000109542	0.170764	310.007
648.0000	3.54756	0.000107049	0.172325	310.175
647.5000	3.51796	8.52962E-005	0.17362	310.345
647.0000	3.42833	0.000103936	0.174722	310.524
646.5000	3.3079	9.94173E-005	0.175121	310.7
646.0000	3.20115	0.00010119	0.174889	310.863
645.5000	3.23268	0.000106194	0.174305	310.996
645.0000	3.20348	0.000119432	0.174129	311.101
644.5000	3.02847	0.000122	0.173656	311.176
644.0000	3.06187	0.00011849	0.172845	311.228
643.5000	2.9346	0.000115318	0.171854	311.257
643.0000	2.87537	0.000120748	0.171236	311.263
642.5000	2.97606	0.000128516	0.171094	311.248
642.0000	3.13482	0.00012473	0.171086	311.214
641.5000	3.16952	0.000126526	0.170767	311.164
641.0000	3.28422	0.000136656	0.170072	311.107
640.5000	3.24286	0.000141168	0.169817	311.042
640.0000	3.09775	0.000142443	0.169744	310.97
639.5000	3.21986	0.00014158	0.169881	310.889
639.0000	3.39504	0.000133543	0.170221	310.81
638.5000	3.37601	0.000124699	0.170606	310.715
638.0000	3.65869	0.000136248	0.17148	310.632
637.5000	3.62463	0.000136786	0.172546	310.542
637.0000	3.69337	0.000142544	0.173564	310.464
636.5000	3.70237	0.000124451	0.174212	310.396
636.0000	3.59567	0.00012879	0.174927	310.338
635.5000	3.49586	0.000120506	0.175949	310.289
635.0000	3.77966	0.000116882	0.17677	310.242
634.5000	3.61461	9.80286E-005	0.177165	310.206
634.0000	3.61391	9.46071E-005	0.17741	310.171
633.5000	3.62009	9.04064E-005	0.178103	310.134
633.0000	3.62846	0.000109255	0.179155	310.112
632.5000	3.3523	0.000100468	0.180113	310.079
632.0000	3.44127	9.28938E-005	0.180641	310.053
631.5000	3.6893	8.3217E-005	0.181148	310.02
631.0000	3.33309	0.000104916	0.181886	309.994
630.5000	3.47822	0.000102054	0.182632	309.958
630.0000	3.58106	9.05812E-005	0.18327	309.927
629.5000	3.67429	8.35661E-005	0.183669	309.891
629.0000	3.88853	9.34405E-005	0.184178	309.86
628.5000	3.96083	9.87914E-005	0.184776	309.828
628.0000	4.29383	0.000107515	0.185486	309.789
627.5000	4.40989	9.9958E-005	0.186041	309.741
627.0000	4.09676	0.000115214	0.186323	309.702
626.5000	4.31531	0.000127318	0.187056	309.672
626.0000	4.38489	0.000128443	0.188425	309.655
625.5000	4.38357	0.000128043	0.189722	309.634
625.0000	4.47968	0.000111682	0.190854	309.641
624.5000	4.63833	0.000135381	0.191882	309.651
624.0000	4.71511	0.000123628	0.193304	309.674
623.5000	4.68413	0.000141128	0.19524	309.727
623.0000	4.70505	0.000124361	0.196656	309.78
622.5000	4.84098	0.00011203	0.197624	309.84
622.0000	4.66613	0.000112351	0.198743	309.916
621.5000	4.58461	0.000119346	0.200022	310.008
621.0000	4.40297	0.000109098	0.201483	310.106
620.5000	4.33454	9.38672E-005	0.202739	310.217
620.0000	4.31826	9.13832E-005	0.204115	310.354
619.5000	4.1292	0.000104422	0.205407	310.521
619.0000	4.16107	0.000125375	0.206925	310.703
618.5000	4.42834	0.000115122	0.208352	310.892
618.0000	4.38403	0.000114002	0.209779	311.084
617.5000	4.32156	0.00011746	0.210797	311.284
617.0000	4.07949	0.000134459	0.212031	311.495
616.5000	3.77641	0.000109068	0.213306	311.694
616.0000	3.85967	8.96492E-005	0.214296	311.879
615.5000	3.80441	0.000118349	0.214786	312.045
615.0000	3.80076	0.000136189	0.215305	312.219
614.5000	3.59948	0.000147061	0.216256	312.409
614.0000	3.82321	0.000154438	0.217361	312.6
613.5000	3.92139	0.000132064	0.218394	312.797
613.0000	4.02475	0.000134795	0.218951	312.995
612.5000	4.12044	0.000128707	0.219858	313.185
612.0000	3.9791	0.000105577	0.220916	313.366
611.5000	3.79804	9.78128E-005	0.222181	313.539
611.0000	3.81227	9.11255E-005	0.223128	313.71
610.5000	3.77842	8.20982E-005	0.224025	313.879
610.0000	3.69164	5.87207E-005	0.224717	314.019
609.5000	3.57111	6.83634E-005	0.225407	314.157
609.0000	3.85526	7.65529E-005	0.226338	314.291
608.5000	3.77882	7.16742E-005	0.227414	314.429
608.0000	3.87102	7.41605E-005	0.228701	314.566
607.5000	3.67279	6.21027E-005	0.229967	314.699
607.0000	3.8265	3.61742E-005	0.231471	314.847
606.5000	3.93612	3.34713E-005	0.233007	314.988
606.0000	3.99145	2.65222E-005	0.234401	315.111
605.5000	4.35134	2.89894E-005	0.236015	315.228
605.0000	4.26591	4.37138E-005	0.237698	315.34
604.5000	4.25895	5.03805E-005	0.239267	315.46
604.0000	4.51874	5.44311E-005	0.24054	315.569
603.5000	4.55454	6.36841E-005	0.241771	315.667
603.0000	4.68224	5.31309E-005	0.243253	315.761
602.5000	4.3503	4.43213E-005	0.244996	315.866
602.0000	4.05295	3.59465E-005	0.246887	315.978
601.5000	3.92384	4.23186E-005	0.248866	316.092
601.0000	3.98746	4.11518E-005	0.250919	316.2
600.5000	3.76072	1.79215E-005	0.252895	316.289
600.0000	3.91248	2.0478E-005	0.254972	316.37
599.5000	3.70762	1.28472E-005	0.256766	316.457
599.0000	3.65002	6.92158E-006	0.258289	316.531
598.5000	3.41977	-8.42661E-006	0.260209	316.596
598.0000	3.18764	-3.35012E-005	0.262532	316.666
597.5000	2.9758	-4.3962E-005	0.264744	316.725
597.0000	2.82661	-6.14869E-005	0.266843	316.792
596.5000	2.7012	-5.63031E-005	0.269012	316.841
596.0000	2.38781	-5.55386E-005	0.271683	316.903
595.5000	2.24745	-6.98718E-005	0.274636	316.984
595.0000	2.58725	-5.1624E-005	0.277191	317.038
594.5000	2.18936	-3.34394E-005	0.280014	317.113
594.0000	2.15088	-2.9716E-005	0.282981	317.187
593.5000	2.07477	-6.60697E-005	0.286246	317.26
593.0000	1.76368	-7.48394E-005	0.289591	317.356
592.5000	1.74742	-8.39487E-005	0.292906	317.48
592.0000	1.36066	-9.3734E-005	0.295964	317.608
591.5000	1.25812	-7.66289E-005	0.299243	317.729
591.0000	1.08284	-8.9684E-005	0.30309	317.859
590.5000	0.906899	-9.18023E-005	0.306882	318.025
590.0000	0.634897	-9.63706E-005	0.310367	318.197
589.5000	0.407084	-7.70207E-005	0.313881	318.385
589.0000	-0.0579752	-8.78593E-005	0.317677	318.59
588.5000	-0.38658	-9.32426E-005	0.321923	318.816
588.0000	-0.755428	-0.000124516	0.326456	319.077
587.5000	-1.20305	-0.000116113	0.330708	319.335
587.0000	-1.54323	-0.000144518	0.335178	319.652
586.5000	-1.92986	-0.000165196	0.339577	319.958
586.0000	-2.29246	-0.000180681	0.34406	320.272
585.5000	-2.60906	-0.000185235	0.348188	320.6
585.0000	-3.14264	-0.000205322	0.352447	320.936
584.5000	-3.33138	-0.000220152	0.356796	321.271
584.0000	-3.99329	-0.000208098	0.361689	321.658
583.5000	-4.60413	-0.000210312	0.366763	322.058
583.0000	-5.33865	-0.000231767	0.372092	322.497
582.5000	-5.93208	-0.000258227	0.377546	322.957
582.0000	-6.52904	-0.000271724	0.383387	323.416
581.5000	-7.32086	-0.00028873	0.389675	323.925
581.0000	-8.41719	-0.000325464	0.395884	324.434
580.5000	-9.1715	-0.000337761	0.401823	324.965
580.0000	-9.98391	-0.000330483	0.407705	325.483
579.5000	-10.8386	-0.000341378	0.413426	326.016
579.0000	-11.685	-0.000357748	0.419863	326.563
578.5000	-12.7428	-0.000379679	0.426673	327.113
578.0000	-13.7524	-0.000399277	0.433497	327.702
577.5000	-15.236	-0.000419667	0.44083	328.343
577.0000	-16.2415	-0.000433431	0.448312	328.974
576.5000	-17.489	-0.000429922	0.456608	329.664
576.0000	-18.5738	-0.000450246	0.46425	330.322
575.5000	-19.7685	-0.000467047	0.472232	331.008
575.0000	-21.0147	-0.000496393	0.479691	331.666
574.5000	-22.2681	-0.000500701	0.487887	332.374
574.0000	-23.2928	-0.000511238	0.496026	333.069
573.5000	-24.6006	-0.000525286	0.503694	333.767
573.0000	-25.2902	-0.000540687	0.511847	334.521
572.5000	-26.3443	-0.000573691	0.519713	335.234
572.0000	-27.7722	-0.00059309	0.528695	336.037
571.5000	-29.1923	-0.000623652	0.537687	336.815
571.0000	-30.7255	-0.000633722	0.546963	337.628
570.5000	-31.7939	-0.00067457	0.555998	338.458
570.0000	-32.6148	-0.000688662	0.564359	339.25
569.5000	-33.5509	-0.000717112	0.573255	340.068
569.0000	-34.8748	-0.000745697	0.581992	340.871
568.5000	-35.8267	-0.000763476	0.589975	341.62
568.0000	-36.4701	-0.000783945	0.598087	342.376
567.5000	-37.3918	-0.000812337	0.606252	343.126
567.0000	-38.275	-0.000839691	0.614134	343.85
566.5000	-39.0399	-0.000865314	0.621625	344.519
566.0000	-39.5305	-0.000884256	0.628556	345.157
565.5000	-40.2122	-0.000891266	0.635384	345.782
565.0000	-40.9407	-0.000900811	0.64208	346.355
564.5000	-40.9686	-0.000894218	0.64855	346.908
564.0000	-41.2702	-0.000915892	0.654328	347.389
563.5000	-41.2345	-0.000922736	0.659559	347.816
563.0000	-41.0975	-0.000947451	0.664691	348.252
562.5000	-40.906	-0.000952584	0.669113	348.598
562.0000	-41.0568	-0.000991603	0.673244	348.901
561.5000	-40.6546	-0.00100895	0.677666	349.2
561.0000	-40.051	-0.0010138	0.681476	349.445
560.5000	-39.8202	-0.00101289	0.684658	349.646
560.0000	-39.1124	-0.00102105	0.687502	349.816
559.5000	-38.2106	-0.00100873	0.690057	349.93
559.0000	-37.2331	-0.00100347	0.691878	349.975
558.5000	-36.2072	-0.000997927	0.692932	349.962
558.0000	-35.091	-0.000967079	0.693611	349.919
557.5000	-33.9002	-0.000973823	0.694118	349.83
557.0000	-32.9105	-0.000962752	0.694358	349.697
556.5000	-31.9558	-0.000972286	0.694166	349.535
556.0000	-30.8838	-0.000952299	0.693492	349.315
555.5000	-29.6222	-0.000951468	0.692402	349.073
555.0000	-28.6084	-0.000972597	0.691263	348.804
554.5000	-27.6391	-0.000967854	0.689754	348.502
554.0000	-26.291	-0.000976854	0.68806	348.183
553.5000	-25.6135	-0.000959969	0.686211	347.844
553.0000	-24.4996	-0.000934658	0.684377	347.507
552.5000	-23.7911	-0.000932469	0.682507	347.171
552.0000	-23.0806	-0.000956713	0.680561	346.785
551.5000	-22.5067	-0.000954092	0.678285	346.417
551.0000	-22.0684	-0.000957663	0.675947	346.039
550.5000	-21.6553	-0.000925544	0.673638	345.648
550.0000	-21.5909	-0.000944538	0.671401	345.26
549.5000	-21.5036	-0.000958163	0.669302	344.884
549.0000	-20.9916	-0.000967698	0.667194	344.522
548.5000	-20.9706	-0.00100336	0.665177	344.183
548.0000	-20.7308	-0.000996035	0.663199	343.833
547.5000	-20.7165	-0.000988838	0.661673	343.537
547.0000	-20.9759	-0.000973691	0.659999	343.208
546.5000	-21.3087	-0.000984914	0.658887	342.93
546.0000	-21.1929	-0.000972614	0.658037	342.701
545.5000	-21.1167	-0.00095906	0.657375	342.489
545.0000	-21.3023	-0.000962153	0.656761	342.341
544.5000	-21.8	-0.000981301	0.656494	342.189
544.0000	-21.9254	-0.000987942	0.656352	342.069
543.5000	-22.1785	-0.000976121	0.656437	341.978
543.0000	-22.5571	-0.000962703	0.656969	341.917
542.5000	-22.5721	-0.000977319	0.657567	341.874
542.0000	-22.3442	-0.000986637	0.658788	341.859
541.5000	-22.6094	-0.000995964	0.660015	341.872
541.0000	-22.9283	-0.000992339	0.661573	341.917
540.5000	-23.3552	-0.000991708	0.66342	341.986
540.0000	-23.5194	-0.000989594	0.665393	342.057
539.5000	-24.0798	-0.00100933	0.66764	342.172
539.0000	-24.1582	-0.00101889	0.670329	342.343
538.5000	-24.5321	-0.00103702	0.673107	342.53
538.0000	-24.9079	-0.00104621	0.675852	342.717
537.5000	-25.3439	-0.00103436	0.6788	342.913
537.0000	-25.883	-0.00106704	0.682232	343.13
536.5000	-25.7909	-0.00104993	0.685584	343.356
536.0000	-25.7587	-0.00105265	0.689032	343.601
535.5000	-26.0682	-0.00104088	0.692596	343.862
535.0000	-26.1819	-0.00104119	0.696657	344.144
534.5000	-26.6182	-0.0010547	0.700828	344.402
534.0000	-27.1696	-0.00106957	0.704851	344.694
533.5000	-27.1122	-0.00106749	0.708907	344.999
533.0000	-27.2952	-0.00106321	0.712884	345.28
532.5000	-27.1939	-0.00105379	0.717011	345.568
532.0000	-27.3541	-0.00106865	0.721437	345.891
531.5000	-26.7027	-0.00104057	0.725976	346.221
531.0000	-26.66	-0.00103434	0.730306	346.533
530.5000	-26.3306	-0.00103709	0.734575	346.84
530.0000	-25.7494	-0.00101652	0.739083	347.143
529.5000	-25.2559	-0.00102415	0.743221	347.446
529.0000	-24.8779	-0.00104079	0.74704	347.711
528.5000	-24.3899	-0.00105102	0.750751	347.974
528.0000	-23.9182	-0.00105796	0.754206	348.217
527.5000	-23.6107	-0.00107173	0.757796	348.452
527.0000	-22.7486	-0.00107839	0.761693	348.692
526.5000	-22.1483	-0.00109879	0.76514	348.906
526.0000	-21.5256	-0.00110706	0.768667	349.125
525.5000	-20.3055	-0.00110686	0.771998	349.31
525.0000	-19.4235	-0.00112258	0.774914	349.484
524.5000	-18.4258	-0.00112618	0.777637	349.626
524.0000	-17.7922	-0.00112724	0.779931	349.735
523.5000	-16.6694	-0.00114343	0.782143	349.842
523.0000	-15.8403	-0.00112987	0.784312	349.917
522.5000	-15.015	-0.00117096	0.786406	349.982
522.0000	-13.9251	-0.00115979	0.788222	350.026
521.5000	-12.8611	-0.00116503	0.789932	350.078
521.0000	-11.6339	-0.00117309	0.791297	350.094
520.5000	-10.6342	-0.00117998	0.792661	350.111
520.0000	-9.69723	-0.00117465	0.793733	350.091
519.5000	-8.66298	-0.00118016	0.794644	350.053
519.0000	-7.76647	-0.00114922	0.795763	350.017
518.5000	-6.77086	-0.00113896	0.796588	349.977
518.0000	-5.45939	-0.00113879	0.797283	349.925
517.5000	-4.57018	-0.00113807	0.797989	349.872
517.0000	-3.87623	-0.00114448	0.799034	349.821
516.5000	-2.97239	-0.00115474	0.799716	349.76
516.0000	-1.84484	-0.00115938	0.800408	349.706
515.5000	-0.898756	-0.00115465	0.800991	349.656
515.0000	-0.391689	-0.00114092	0.801354	349.595
514.5000	0.548633	-0.00111764	0.801766	349.543
514.0000	0.98973	-0.00109787	0.801997	349.472
513.5000	1.5805	-0.0011014	0.802424	349.408
513.0000	2.37258	-0.00109146	0.802841	349.339
512.5000	2.90841	-0.00110206	0.803286	349.297
512.0000	3.30649	-0.00109593	0.80395	349.255
511.5000	3.76179	-0.00110103	0.804549	349.22
511.0000	4.45305	-0.00110923	0.805	349.177
510.5000	4.88099	-0.0011397	0.805319	349.117
510.0000	5.57088	-0.00112588	0.805809	349.068
509.5000	6.19272	-0.00115513	0.806076	348.984
509.0000	6.98451	-0.0011473	0.806255	348.896
508.5000	7.50377	-0.00115905	0.806282	348.785
508.0000	8.37914	-0.00114605	0.806563	348.674
507.5000	8.73709	-0.00115387	0.807189	348.591
507.0000	9.28397	-0.00117435	0.80793	348.519
506.5000	9.79012	-0.00118864	0.808639	348.449
506.0000	10.4006	-0.00120131	0.809	348.381
505.5000	10.5308	-0.00123298	0.80922	348.307
505.0000	11.202	-0.00123176	0.809412	348.237
504.5000	11.4917	-0.00121724	0.809738	348.148
504.0000	12.3416	-0.00122956	0.810086	348.039
503.5000	13.2456	-0.00122923	0.809946	347.918
503.0000	13.9192	-0.00123069	0.809642	347.769
502.5000	14.3461	-0.00123407	0.809447	347.624
502.0000	14.891	-0.00123016	0.809157	347.495
501.5000	15.2987	-0.00123863	0.808757	347.344
501.0000	15.767	-0.00125219	0.808183	347.164
500.5000	16.1541	-0.00122852	0.807383	346.948
500.0000	16.5628	-0.00123101	0.806639	346.696
499.5000	17.0998	-0.00123299	0.805151	346.359
499.0000	17.627	-0.00124213	0.80274	345.88
498.5000	18.0143	-0.00125861	0.799902	345.285
498.0000	18.642	-0.00127203	0.797124	344.601
497.5000	19.2243	-0.00126465	0.794899	343.803
497.0000	20.1737	-0.00126907	0.793645	343.031
496.5000	20.9634	-0.0012914	0.794435	342.369
496.0000	21.2525	-0.00126949	0.796273	341.918
495.5000	21.6793	-0.00129436	0.797573	341.574
495.0000	22.2209	-0.00129282	0.797622	341.285
494.5000	23.0476	-0.00131172	0.797036	341.014
494.0000	23.3091	-0.00133492	0.796093	340.747
493.5000	23.6883	-0.00133504	0.795118	340.459
493.0000	24.4183	-0.00133216	0.794251	340.215
492.5000	24.982	-0.00131469	0.793453	339.973
492.0000	25.4991	-0.00133254	0.79248	339.723
491.5000	26.2708	-0.00133604	0.79146	339.511
491.0000	26.7286	-0.00135264	0.790524	339.338
490.5000	27.0593	-0.00134431	0.789822	339.201
490.0000	27.8501	-0.00132403	0.788983	339.101
489.5000	28.2869	-0.00133731	0.787852	339.028
489.0000	28.8937	-0.00134725	0.785441	338.888
488.5000	29.205	-0.00134633	0.78133	338.593
488.0000	29.6584	-0.00136176	0.775793	338.05
487.5000	30.1237	-0.00136076	0.770905	337.351
487.0000	30.48	-0.00136248	0.767009	336.605
486.5000	30.6595	-0.00136464	0.763094	335.73
486.0000	31.161	-0.00136828	0.760234	334.909
485.5000	31.7804	-0.00135007	0.759148	334.202
485.0000	32.0347	-0.00136143	0.759078	333.613
484.5000	32.4591	-0.00136708	0.758508	333.128
484.0000	32.9535	-0.00137937	0.756789	332.688
483.5000	33.0406	-0.00138524	0.754622	332.305
483.0000	33.2961	-0.0013914	0.752133	331.941
482.5000	33.8676	-0.00138794	0.750006	331.636
482.0000	34.1029	-0.00138895	0.747623	331.366
481.5000	34.3389	-0.0014012	0.745071	331.12
481.0000	34.5699	-0.00139739	0.742341	330.896
480.5000	34.262	-0.00140684	0.739794	330.693
480.0000	34.4477	-0.00140655	0.736758	330.465
479.5000	34.6724	-0.00141815	0.732235	330.14
479.0000	34.6074	-0.00141432	0.725057	329.529
478.5000	34.6629	-0.00142252	0.718131	328.74
478.0000	34.5684	-0.00141622	0.71448	327.975
477.5000	34.3268	-0.00140825	0.714606	327.5
477.0000	34.1152	-0.0014139	0.713333	327.088
476.5000	33.8276	-0.00142701	0.706834	326.383
476.0000	33.7492	-0.00142325	0.699139	325.48
475.5000	33.5988	-0.00141827	0.691704	324.377
475.0000	33.707	-0.00141698	0.685111	323.117
474.5000	33.4516	-0.00142613	0.67928	321.787
474.0000	33.1084	-0.0014523	0.673003	320.308
473.5000	32.7469	-0.00145187	0.66626	318.598
473.0000	32.6146	-0.00143361	0.66061	316.8
472.5000	32.2474	-0.00143548	0.657893	315.112
472.0000	31.9869	-0.00143773	0.658789	313.906
471.5000	31.7782	-0.00142856	0.660732	313.064
471.0000	31.4122	-0.00144091	0.661983	312.656
470.5000	31.1178	-0.00145222	0.663676	312.56
470.0000	31.0748	-0.00145535	0.662833	312.586
469.5000	30.8882	-0.00147196	0.656685	312.354
469.0000	30.7653	-0.00149175	0.646417	311.661
468.5000	30.7546	-0.0015013	0.638783	310.805
468.0000	30.3851	-0.00150177	0.634753	310.024
467.5000	30.1141	-0.00150178	0.633124	309.48
467.0000	29.5997	-0.00151812	0.632671	309.182
466.5000	29.2214	-0.00153538	0.631927	309.084
466.0000	28.9826	-0.00151703	0.630725	309.178
465.5000	28.6196	-0.00150395	0.629598	309.519
465.0000	28.2846	-0.00151673	0.627823	310.096
464.5000	28.0785	-0.00152105	0.622865	310.63
464.0000	27.8833	-0.0015211	0.613821	310.788
463.5000	27.543	-0.00153338	0.603467	310.568
463.0000	27.2478	-0.00151757	0.594628	310.148
462.5000	26.7848	-0.00149808	0.588334	309.708
462.0000	26.4383	-0.00148855	0.583656	309.303
461.5000	26.0251	-0.00148337	0.579795	309.02
461.0000	25.7439	-0.00146764	0.576608	308.885
460.5000	25.2133	-0.00145905	0.57293	308.867
460.0000	24.7868	-0.00145679	0.568779	308.894
459.5000	24.3235	-0.0014463	0.563593	308.893
459.0000	24.045	-0.00142421	0.556685	308.769
458.5000	23.9009	-0.00140168	0.54921	308.505
458.0000	23.3136	-0.00141278	0.540977	308.034
457.5000	23.035	-0.00140238	0.532798	307.368
457.0000	22.6232	-0.00139436	0.526597	306.681
456.5000	22.1579	-0.00137959	0.522351	306.091
456.0000	21.8666	-0.00136997	0.516439	305.457
455.5000	21.5278	-0.00137051	0.507808	304.563
455.0000	21.1342	-0.00133603	0.50126	303.683
454.5000	20.6692	-0.00132212	0.498578	303.053
454.0000	20.2495	-0.00131605	0.495748	302.631
453.5000	19.9721	-0.00132169	0.490455	302.251
453.0000	19.7619	-0.00128563	0.484584	301.843
452.5000	19.3492	-0.00127755	0.47877	301.403
452.0000	18.9993	-0.00127193	0.47275	300.938
451.5000	18.5598	-0.00125647	0.466801	300.446
451.0000	18.1956	-0.00124238	0.461086	299.964
450.5000	17.6651	-0.00124684	0.455254	299.456
450.0000	17.2713	-0.00123631	0.450522	299.033
449.5000	16.9038	-0.0012168	0.447221	298.786
449.0000	16.6224	-0.00118323	0.443562	298.631
448.5000	16.3964	-0.00116489	0.437214	298.346
448.0000	16.1573	-0.00115052	0.431066	297.994
447.5000	15.7346	-0.00112752	0.42823	297.84
447.0000	15.2872	-0.00112334	0.426545	297.914
446.5000	14.9916	-0.00111102	0.421797	297.916
446.0000	14.9026	-0.00110475	0.413186	297.625
445.5000	14.649	-0.00109209	0.40533	297.131
445.0000	14.1973	-0.00106071	0.399385	296.565
444.5000	14.093	-0.00104635	0.393492	295.965
444.0000	13.6652	-0.00102232	0.388144	295.348
443.5000	13.4238	-0.00100499	0.382986	294.686
443.0000	13.0813	-0.000982949	0.379028	294.132
442.5000	12.8305	-0.000958603	0.375303	293.628
442.0000	12.6262	-0.000942342	0.371906	293.193
441.5000	12.3524	-0.000917915	0.367855	292.739
441.0000	12.0134	-0.000898989	0.363915	292.313
440.5000	11.5995	-0.000893518	0.359797	291.887
440.0000	11.3013	-0.000875428	0.355457	291.453
439.5000	10.9405	-0.000855069	0.351142	291.02
439.0000	10.5633	-0.000835741	0.346482	290.563
438.5000	10.212	-0.00081411	0.341717	290.101
438.0000	9.76535	-0.000784619	0.336942	289.655
437.5000	9.37132	-0.000768636	0.332459	289.225
437.0000	9.13493	-0.000744443	0.327923	288.796
436.5000	8.85626	-0.00073532	0.324238	288.445
436.0000	8.46688	-0.000699764	0.32115	288.153
435.5000	8.40359	-0.000671361	0.317833	287.879
435.0000	8.1473	-0.000653674	0.313813	287.589
434.5000	7.96315	-0.000634886	0.309422	287.281
434.0000	7.82162	-0.000612242	0.305081	286.941
433.5000	7.69607	-0.000593227	0.301224	286.602
433.0000	7.70669	-0.000562033	0.297323	286.235
432.5000	7.47631	-0.000547025	0.293738	285.881
432.0000	7.34949	-0.000538906	0.290139	285.505
431.5000	7.22436	-0.000519475	0.286462	285.125
431.0000	7.11516	-0.000512962	0.282658	284.749
430.5000	6.95798	-0.000477475	0.279116	284.378
430.0000	6.95227	-0.000467963	0.276041	284.029
429.5000	6.87149	-0.000445467	0.272609	283.657
429.0000	6.82589	-0.000413868	0.269223	283.28
428.5000	6.67297	-0.000405984	0.266044	282.901
428.0000	6.42144	-0.000406755	0.262855	282.509
427.5000	6.3461	-0.000389832	0.259909	282.168
427.0000	6.10441	-0.000378736	0.256904	281.83
426.5000	6.03706	-0.000353661	0.253772	281.479
426.0000	6.043	-0.000344097	0.250636	281.088
425.5000	5.97729	-0.000345039	0.247435	280.674
425.0000	5.80658	-0.000330484	0.244241	280.24
424.5000	5.75081	-0.000309691	0.241354	279.782
424.0000	5.67293	-0.000309033	0.23932	279.368
423.5000	5.32725	-0.000296412	0.237778	279.037
423.0000	5.14557	-0.000271166	0.235941	278.751
422.5000	4.89009	-0.000263751	0.234092	278.488
422.0000	4.81414	-0.000264249	0.232118	278.23
421.5000	4.66429	-0.000269227	0.22979	277.98
421.0000	4.45654	-0.000257937	0.227641	277.75
420.5000	4.43662	-0.000247591	0.225601	277.517
420.0000	4.3146	-0.000232671	0.223381	277.277
419.5000	4.20112	-0.000210551	0.221203	277.039
419.0000	4.23074	-0.000200644	0.219333	276.808
418.5000	4.11999	-0.000188509	0.217513	276.593
418.0000	4.07964	-0.000184635	0.216131	276.4
417.5000	3.93355	-0.00016487	0.214924	276.219
417.0000	3.67517	-0.000143049	0.213938	276.073
416.5000	3.68945	-0.000132931	0.213293	275.994
416.0000	3.57195	-0.000134819	0.212226	275.937
415.5000	3.75009	-0.000126444	0.210341	275.829
415.0000	3.8893	-0.000122679	0.208649	275.679
414.5000	3.89614	-0.000116144	0.207178	275.486
414.0000	3.89086	-0.000114202	0.205937	275.317
413.5000	3.74083	-0.000106101	0.204823	275.149
413.0000	3.62301	-0.000101318	0.203986	274.994
412.5000	3.58758	-0.000101714	0.20311	274.862
412.0000	3.50972	-0.000101053	0.202419	274.751
411.5000	3.41211	-0.000101982	0.201871	274.645
411.0000	3.41716	-0.000110327	0.201237	274.552
410.5000	3.32808	-9.52743E-005	0.200646	274.469
410.0000	3.37827	-0.000102989	0.200122	274.405
409.5000	3.269	-9.53265E-005	0.199862	274.357
409.0000	3.32956	-7.83492E-005	0.199483	274.325
408.5000	3.42007	-8.23117E-005	0.198952	274.296
408.0000	3.22772	-8.2289E-005	0.198198	274.257
407.5000	3.15586	-6.71983E-005	0.197323	274.204
407.0000	3.14245	-4.61944E-005	0.19644	274.143
406.5000	2.89845	-3.28078E-005	0.195791	274.077
406.0000	2.8925	-1.72789E-005	0.195377	274.019
405.5000	2.92188	2.61467E-006	0.194744	273.929
405.0000	2.9595	6.55789E-007	0.194258	273.821
404.5000	2.99358	1.65035E-005	0.193712	273.699
404.0000	2.96567	1.62477E-005	0.193275	273.558
403.5000	3.06651	1.08272E-005	0.192687	273.385
403.0000	3.02529	1.23342E-005	0.192159	273.195
402.5000	3.07433	2.46403E-005	0.192097	273.006
402.0000	3.01169	2.02849E-005	0.192106	272.826
401.5000	2.88222	2.59852E-005	0.192145	272.626
401.0000	2.82004	1.82257E-005	0.192092	272.45
400.5000	2.61985	1.75863E-005	0.19233	272.304
400.0000	2.56331	2.31622E-005	0.192569	272.186
399.5000	2.5086	1.21859E-005	0.192955	272.082
399.0000	2.43451	-3.25828E-006	0.193403	272.015
398.5000	2.41908	-1.91905E-005	0.193649	271.955
398.0000	2.35119	-1.98833E-005	0.193977	271.922
397.5000	2.30382	-3.63514E-005	0.194498	271.924
397.0000	2.27714	-3.98472E-005	0.19499	271.942
396.5000	2.14019	-3.27278E-005	0.195504	271.996
396.0000	2.01471	-2.69143E-005	0.196406	272.077
395.5000	1.8292	-1.08291E-005	0.197067	272.187
395.0000	1.81277	1.58443E-007	0.197707	272.325
394.5000	1.68811	-5.22846E-006	0.198573	272.502
394.0000	1.77678	-2.73202E-006	0.199258	272.687
393.5000	1.89913	-1.85311E-005	0.199768	272.882
393.0000	1.82285	-4.60207E-005	0.200351	273.104
392.5000	1.86253	-4.88584E-005	0.200741	273.301
392.0000	2.07655	-4.60222E-005	0.201022	273.482
391.5000	2.13385	-4.25109E-005	0.20153	273.643
391.0000	2.2312	-3.622E-005	0.202136	273.786
390.5000	2.19819	-2.48131E-005	0.202712	273.926
390.0000	2.37447	-2.76565E-005	0.203261	274.051
389.5000	2.30999	-2.83469E-005	0.203997	274.172
389.0000	2.45677	-1.20528E-005	0.204748	274.283
388.5000	2.38964	-6.36817E-006	0.205736	274.399
388.0000	2.47895	-1.59783E-005	0.206536	274.51
387.5000	2.57511	-2.3334E-005	0.207146	274.607
387.0000	2.7376	-3.17911E-005	0.208396	274.703
386.5000	2.81087	-2.78834E-005	0.20933	274.771
386.0000	2.7634	-4.35155E-005	0.210207	274.844
385.5000	2.62062	-3.3538E-005	0.211386	274.921
385.0000	2.55191	-2.67422E-005	0.212546	274.994
384.5000	2.60203	-1.16206E-005	0.213808	275.06
384.0000	2.58566	-1.06079E-005	0.215096	275.125
383.5000	2.52033	-6.6762E-006	0.216378	275.196
383.0000	2.3821	-1.22593E-005	0.217548	275.265
382.5000	2.45167	-7.9527E-006	0.218759	275.34
382.0000	2.31689	-1.41794E-005	0.220356	275.419
381.5000	2.07183	-2.49829E-005	0.221767	275.502
381.0000	2.10146	-3.67354E-005	0.223048	275.583
380.5000	2.06557	-4.64412E-005	0.224172	275.663
380.0000	1.89375	-5.52312E-005	0.225318	275.748
379.5000	1.90644	-6.83905E-005	0.226625	275.833
379.0000	1.86282	-7.72224E-005	0.228005	275.919
378.5000	1.89995	-7.6825E-005	0.22896	276.002
378.0000	1.90553	-7.11492E-005	0.229972	276.099
377.5000	1.95146	-6.38354E-005	0.230923	276.183
377.0000	1.99762	-7.71336E-005	0.231583	276.24
376.5000	2.12295	-7.85718E-005	0.232545	276.308
376.0000	2.11276	-8.85128E-005	0.233354	276.366
375.5000	2.08551	-9.87831E-005	0.234196	276.428
375.0000	2.19163	-0.000111981	0.234753	276.472
374.5000	2.30767	-0.000118193	0.235573	276.516
374.0000	2.41797	-0.000116512	0.23628	276.555
373.5000	2.48795	-0.000130547	0.236914	276.595
373.0000	2.58219	-0.000141053	0.237277	276.628
372.5000	2.69456	-0.000131893	0.237812	276.66
372.0000	2.65402	-0.000136331	0.238734	276.703
371.5000	2.75718	-0.000145564	0.239505	276.738
371.0000	2.63473	-0.00014938	0.240104	276.782
370.5000	2.61177	-0.000138515	0.240745	276.836
370.0000	2.4147	-0.000155786	0.24154	276.893
369.5000	2.38443	-0.000165271	0.242187	276.941
369.0000	2.60333	-0.000170283	0.243	277.008
368.5000	2.50858	-0.000164856	0.244023	277.096
368.0000	2.3484	-0.000172925	0.244719	277.178
367.5000	2.45146	-0.000188169	0.245437	277.271
367.0000	2.60873	-0.00018548	0.246259	277.36
366.5000	2.41726	-0.000189219	0.247303	277.466
366.0000	2.5122	-0.000201579	0.248361	277.58
365.5000	2.51968	-0.000203517	0.249247	277.687
365.0000	2.4396	-0.000207463	0.250386	277.8
364.5000	2.54453	-0.000207873	0.251569	277.907
364.0000	2.65056	-0.000213931	0.252814	278.024
363.5000	2.60019	-0.000225858	0.253636	278.126
363.0000	2.76267	-0.00021787	0.254629	278.25
362.5000	2.84239	-0.000229809	0.25549	278.358
362.0000	2.94577	-0.00023033	0.256374	278.458
361.5000	3.03268	-0.000221611	0.257451	278.574
361.0000	3.02826	-0.00023627	0.258431	278.672
360.5000	3.20448	-0.000238902	0.259123	278.769
360.0000	3.15721	-0.000264615	0.25992	278.872
359.5000	3.1036	-0.000260237	0.260969	278.977
359.0000	2.95837	-0.000257619	0.262013	279.069
358.5000	3.02155	-0.000265423	0.263029	279.169
358.0000	3.13062	-0.000282789	0.263632	279.265
357.5000	3.155	-0.000300179	0.264318	279.367
357.0000	3.07686	-0.000307287	0.265097	279.47
356.5000	3.08969	-0.000305565	0.265776	279.559
356.0000	2.9989	-0.00030791	0.26648	279.65
355.5000	2.99483	-0.000311622	0.266992	279.741
355.0000	2.96296	-0.000314493	0.267371	279.826
354.5000	2.92467	-0.000316279	0.268155	279.919
354.0000	3.0751	-0.000310731	0.269087	280.026
353.5000	3.05259	-0.000313666	0.269944	280.13
353.0000	2.96578	-0.000329505	0.270529	280.227
352.5000	2.89172	-0.000335019	0.271301	280.35
352.0000	2.90984	-0.000346846	0.272305	280.462
351.5000	2.89069	-0.000333315	0.273114	280.562
351.0000	2.97104	-0.000353899	0.27381	280.659
350.5000	2.94562	-0.000364506	0.27435	280.761
350.0000	2.80812	-0.000367325	0.274954	280.875
349.5000	2.67026	-0.000364636	0.275975	280.989
349.0000	2.61546	-0.00036047	0.276897	281.108
348.5000	2.72629	-0.000365275	0.277712	281.214
348.0000	2.7703	-0.000399215	0.278392	281.316
347.5000	2.87698	-0.000410287	0.278976	281.421
347.0000	2.86216	-0.000408598	0.279589	281.523
346.5000	2.93519	-0.000414665	0.280302	281.626
346.0000	2.97839	-0.000435641	0.28095	281.718
345.5000	2.94237	-0.000456813	0.281733	281.815
345.0000	3.00601	-0.000469639	0.282461	281.924
344.5000	2.96863	-0.00048983	0.283345	282.031
344.0000	3.01068	-0.000490927	0.284182	282.133
343.5000	3.02338	-0.000522214	0.285096	282.242
343.0000	3.03275	-0.00053024	0.286143	282.348
342.5000	3.05826	-0.000545397	0.287082	282.456
342.0000	3.15734	-0.000567332	0.288152	282.564
341.5000	3.12392	-0.000578453	0.288988	282.66
341.0000	3.20518	-0.000590189	0.290036	282.755
340.5000	3.04396	-0.00061606	0.291246	282.862
340.0000	3.13458	-0.000633937	0.292567	282.989
339.5000	3.33969	-0.000633644	0.293691	283.107
339.0000	3.32452	-0.00066247	0.294932	283.218
338.5000	3.3391	-0.000681178	0.296171	283.34
338.0000	3.25283	-0.000702217	0.29741	283.471
337.5000	3.2734	-0.000713025	0.298651	283.598
337.0000	3.1807	-0.000728001	0.299934	283.726
336.5000	3.28605	-0.000743624	0.301156	283.849
336.0000	3.31979	-0.00075823	0.302491	283.986
335.5000	3.44441	-0.000767635	0.303656	284.12
335.0000	3.58262	-0.000750007	0.304424	284.231
334.5000	3.66827	-0.000760291	0.305593	284.37
334.0000	3.61932	-0.000768829	0.306834	284.509
333.5000	3.655	-0.000798118	0.308126	284.665
333.0000	3.99647	-0.000813274	0.309391	284.82
332.5000	3.95085	-0.000817226	0.310312	284.952
332.0000	4.3173	-0.000825762	0.311362	285.087
331.5000	4.31877	-0.000836828	0.312469	285.234
331.0000	4.34627	-0.000855959	0.313734	285.395
330.5000	4.65512	-0.000868001	0.315122	285.556
330.0000	4.88988	-0.00088295	0.316494	285.711
329.5000	4.97537	-0.000897485	0.317989	285.868
329.0000	4.96064	-0.000914153	0.319526	286.038
328.5000	5.00393	-0.000929906	0.320764	286.178
328.0000	4.86009	-0.000945412	0.322092	286.315
327.5000	4.94253	-0.000958539	0.323483	286.445
327.0000	4.80807	-0.000973625	0.324912	286.565
326.5000	4.88911	-0.00101097	0.326969	286.741
326.0000	4.97272	-0.00105461	0.328686	286.91
325.5000	5.04947	-0.0010811	0.330225	287.076
325.0000	5.26664	-0.00109404	0.331762	287.238
324.5000	5.17453	-0.00111521	0.333436	287.418
324.0000	5.35677	-0.00114572	0.335348	287.62
323.5000	5.1792	-0.00115971	0.336934	287.812
323.0000	5.42885	-0.00117554	0.338845	288.018
322.5000	5.32415	-0.00119431	0.340946	288.219
322.0000	5.17647	-0.00121269	0.342871	288.415
321.5000	5.08968	-0.00124265	0.344863	288.622
321.0000	5.22376	-0.00126359	0.34672	288.835
320.5000	5.5701	-0.00128228	0.348436	289.037
320.0000	5.70224	-0.00129891	0.350392	289.251
319.5000	5.86085	-0.00131391	0.352264	289.464
319.0000	6.00977	-0.00134546	0.354277	289.706
318.5000	6.02543	-0.00138251	0.356293	289.95
318.0000	6.19244	-0.0013933	0.358087	290.155
317.5000	6.32317	-0.00139934	0.360177	290.353
317.0000	6.5114	-0.00141915	0.362592	290.562
316.5000	6.51911	-0.00142663	0.364716	290.76
316.0000	6.41587	-0.00144687	0.366778	290.968
315.5000	6.46723	-0.00147475	0.368875	291.178
315.0000	6.57315	-0.00148884	0.371318	291.412
314.5000	6.65087	-0.00151289	0.373376	291.621
314.0000	6.89988	-0.00154295	0.375438	291.848
313.5000	7.08662	-0.00155046	0.377498	292.078
313.0000	7.32477	-0.00156816	0.37974	292.334
312.5000	7.3686	-0.00159314	0.38199	292.581
312.0000	7.37273	-0.00162359	0.384311	292.831
311.5000	7.62277	-0.00162972	0.386654	293.087
311.0000	7.74153	-0.00163358	0.389056	293.353
310.5000	7.82761	-0.00163672	0.391503	293.65
310.0000	7.93783	-0.00162997	0.393855	293.934
309.5000	8.04209	-0.00164237	0.396085	294.231
309.0000	8.23944	-0.00166701	0.398704	294.568
308.5000	8.3254	-0.00167208	0.401431	294.91
308.0000	8.44926	-0.00168153	0.404416	295.237
307.5000	8.60645	-0.00168015	0.407768	295.609
307.0000	8.65391	-0.00169756	0.41069	295.959
306.5000	8.76709	-0.00173239	0.413691	296.327
306.0000	8.82494	-0.00173341	0.417058	296.702
305.5000	8.95783	-0.00173031	0.420887	297.116
305.0000	8.78292	-0.00174914	0.424852	297.53
304.5000	8.80041	-0.00177156	0.429236	297.986
304.0000	8.75659	-0.00179649	0.433696	298.48
303.5000	8.93386	-0.00180505	0.438172	298.965
303.0000	8.93743	-0.00182259	0.442912	299.484
302.5000	9.1378	-0.00186254	0.448079	300.033
302.0000	9.23721	-0.00188602	0.453531	300.603
301.5000	9.59716	-0.00191277	0.458886	301.182
301.0000	9.54139	-0.00191411	0.464489	301.769
300.5000	9.38554	-0.00191559	0.469648	302.304
300.0000	9.62464	-0.00193121	0.4756	302.941
299.5000	9.56721	-0.00195446	0.481267	303.554
299.0000	9.72087	-0.00196043	0.487028	304.164
298.5000	9.74739	-0.00197031	0.49311	304.796
298.0000	9.89365	-0.00195315	0.499052	305.415
297.5000	9.79821	-0.00195475	0.504688	306.039
297.0000	9.77685	-0.00195835	0.509739	306.59
296.5000	9.68173	-0.00194704	0.514431	307.115
296.0000	9.71505	-0.00193432	0.519266	307.634
295.5000	9.86429	-0.00191235	0.524277	308.114
295.0000	10.0009	-0.00190409	0.528923	308.546
294.5000	9.92627	-0.00188462	0.533154	308.999
294.0000	9.83045	-0.00185608	0.537427	309.488
293.5000	9.76686	-0.00184017	0.540966	309.894
293.0000	9.69022	-0.00179934	0.544568	310.325
292.5000	9.57319	-0.00176588	0.548057	310.752
292.0000	9.27683	-0.00174179	0.551152	311.167
291.5000	9.1969	-0.0016993	0.554189	311.568
291.0000	9.1334	-0.00165523	0.557121	311.957
290.5000	9.03689	-0.00160223	0.560323	312.372
290.0000	8.70929	-0.00155766	0.5632	312.757
289.5000	8.53681	-0.00153772	0.56599	313.133
289.0000	8.30009	-0.00149596	0.568807	313.504
288.5000	8.18135	-0.00144053	0.571779	313.921
288.0000	8.05151	-0.00139515	0.574934	314.35
287.5000	7.64157	-0.00133478	0.577977	314.795
287.0000	7.45847	-0.00128804	0.581097	315.293
286.5000	7.29703	-0.0012262	0.584094	315.781
286.0000	7.18513	-0.00116408	0.587231	316.242
285.5000	7.15149	-0.00109858	0.590676	316.682
285.0000	6.85264	-0.00104047	0.594479	317.165
284.5000	6.67736	-0.000977501	0.597934	317.62
284.0000	6.81358	-0.000932549	0.601653	318.104
283.5000	6.54886	-0.000873139	0.605515	318.594
283.0000	6.51689	-0.000809852	0.6094	319.087
282.5000	6.48792	-0.000749673	0.61325	319.623
282.0000	6.47057	-0.000693786	0.61733	320.177
281.5000	6.60967	-0.00062829	0.621319	320.708
281.0000	6.66677	-0.000575485	0.625756	321.269
280.5000	6.80283	-0.000531903	0.630633	321.888
280.0000	6.93284	-0.000503466	0.635997	322.525
279.5000	7.18309	-0.000453494	0.641345	323.189
279.0000	7.11468	-0.000412943	0.646812	323.863
278.5000	7.04458	-0.000355802	0.652677	324.596
278.0000	6.77057	-0.000282052	0.659298	325.412
277.5000	6.97884	-0.000238672	0.665729	326.187
277.0000	7.16097	-0.000191743	0.672767	327.05
276.5000	7.31459	-0.000162356	0.680322	327.956
276.0000	7.35967	-0.000125626	0.687613	328.817
275.5000	7.31743	-7.66454E-005	0.696158	329.815
275.0000	7.43325	-2.63645E-005	0.705111	330.858
274.5000	7.55774	1.28336E-005	0.714432	331.944
274.0000	7.50679	7.46383E-005	0.724901	333.159
273.5000	7.63013	0.00013799	0.734696	334.313
273.0000	7.52091	0.000176348	0.745711	335.591
272.5000	7.49647	0.000220931	0.757065	336.924
272.0000	7.1513	0.000275882	0.769061	338.335
271.5000	7.03197	0.000325835	0.782127	339.898
271.0000	6.8115	0.00035851	0.795269	341.457
270.5000	6.77009	0.000415834	0.80902	343.094
270.0000	6.74742	0.000452807	0.823501	344.813
269.5000	6.33314	0.000465412	0.838848	346.631
269.0000	5.85556	0.000487247	0.853858	348.43
268.5000	5.72903	0.00055998	0.870254	350.415
268.0000	5.47392	0.000594528	0.8874	352.51
267.5000	5.11794	0.000621046	0.905181	354.694
267.0000	5.04365	0.000667199	0.924617	357.087
266.5000	4.74756	0.000686713	0.944877	359.595
266.0000	4.82483	0.00074038	0.963904	361.96
265.5000	4.16553	0.000709408	0.984518	364.528
265.0000	3.39301	0.000714442	1.00697	367.331
264.5000	3.18345	0.000733163	1.02892	370.094
264.0000	2.89591	0.000732372	1.05151	372.943
263.5000	2.40702	0.000753937	1.07555	376.009
263.0000	1.62274	0.000778913	1.09777	378.863
262.5000	1.54397	0.000777554	1.12297	382.104
262.0000	1.551	0.000795011	1.14771	385.297
261.5000	1.30444	0.000777694	1.17277	388.575
261.0000	1.1022	0.000774067	1.19703	391.777
260.5000	0.952658	0.000748158	1.22347	395.261
260.0000	0.692134	0.000728137	1.25084	398.891
259.5000	0.111056	0.00072562	1.27912	402.657
259.0000	-0.392706	0.000703718	1.30838	406.597
258.5000	-1.44602	0.000648249	1.3388	410.712
258.0000	-2.25441	0.000575638	1.37066	415.044
257.5000	-2.74379	0.000480711	1.40217	419.328
257.0000	-2.87126	0.000442815	1.437	424.076
256.5000	-3.19166	0.000427227	1.47145	428.825
256.0000	-3.43133	0.000442422	1.50936	434.125
255.5000	-3.74639	0.000336394	1.54896	439.715
255.0000	-4.73666	0.000263923	1.59068	445.653
254.5000	-4.71334	0.000197961	1.63252	451.623
254.0000	-4.98232	0.000107684	1.67621	457.938
253.5000	-5.6807	7.20059E-005	1.72689	465.364
253.0000	-6.29063	2.52474E-005	1.77498	472.495
252.5000	-6.46588	1.93181E-005	1.85	483.781
252.0000	-9.15368	-7.29675E-007	1.91518	493.781
251.5000	-9.49951	-4.27821E-005	1.97442	503.049
251.0000	-10.0103	-0.000115309	2.03653	512.906
250.5000	-11.0688	-0.00010229	2.10109	523.354
250.0000	-11.8537	-0.000176509	2.16489	533.876

##### Extended Information
[Comments]
Sample name	JS187+JS90_5E-5_HEPES_48h_0-100
Comment
User
Division
Company	Labo systeme complexes hors equilibre

[Detailed Information]
Creation date	3/22/2024 10:49 AM

Data array type	Linear data array * 4
Horizontal axis	Wavelength [nm]
Vertical axis(1)	CD [mdeg]
Vertical axis(2)	LD [dOD]
Vertical axis(3)	Abs
Vertical axis(4)	HT [V]
Start	700 nm
End	250 nm
Data interval	0.5 nm
Data points	901     

[Measurement Information]
Instrument name	CD Jasco
Model name	J-1500
Serial No.	A005261638

Detector	PM-539
Detector S/N	A0052PM539
  Lock-in amp.	X mode
  HT volt	Auto

Detector	EXPML-535
Detector S/N	A0001
  Lock-in amp.	X mode
  HT volt	Auto

Measurement date	3/22/2024 10:49 AM

Overload detect	1
Photometric mode	CD, LD, Abs, HT
Measure range	700 - 250 nm
Data pitch	0.5 nm
CD scale	200 mdeg/1.0 dOD
FL scale	200 mdeg/1.0 dOD
D.I.T.	1 sec
Bandwidth	1.00 nm
Start mode	Immediately
Scanning speed	500 nm/min
Baseline correction	Baseline
Shutter control	Auto


