TITLE	JS187+JS190_5E-5_H2O_100-0_100EQ+4H
DATA TYPE	
ORIGIN	JASCO
OWNER	
DATE	24/01/23
TIME	15:29:25
SPECTROMETER/DATA SYSTEM	
LOCALE	1033
RESOLUTION	
DELTAX	-0.5
XUNITS	NANOMETERS
YUNITS	CD [mdeg]
Y2UNITS	LD [dOD]
Y3UNITS	ABSORBANCE
Y4UNITS	HT [V]
FIRSTX	  700.0000
LASTX	  220.0000
NPOINTS	     961
FIRSTY	     0.16350
MAXY	    10.63138
MINY	   -15.13164
XYDATA
700.0000	0.163503	-4.16256E-005	-0.0656734	298.116
699.5000	-0.255591	-5.17368E-005	-0.0663368	297.852
699.0000	-0.333575	-5.50589E-005	-0.0670308	297.541
698.5000	-0.325824	-5.47346E-005	-0.0672573	297.19
698.0000	-0.260736	-5.18641E-005	-0.0678439	296.807
697.5000	-0.381761	-3.53814E-005	-0.0688642	296.408
697.0000	-0.393877	-6.03011E-007	-0.0702054	295.961
696.5000	-0.300905	5.99822E-006	-0.0709022	295.493
696.0000	-0.556886	1.06565E-006	-0.0710027	294.965
695.5000	-0.522973	-1.66659E-005	-0.0711078	294.438
695.0000	-0.514654	-3.42824E-006	-0.0707185	293.959
694.5000	-0.570362	-4.89614E-006	-0.0703608	293.497
694.0000	-0.507249	-3.84486E-006	-0.0691174	293.042
693.5000	-0.444656	2.43651E-007	-0.0676241	292.615
693.0000	-0.367051	7.42762E-006	-0.0655233	292.242
692.5000	-0.383019	2.02193E-005	-0.063493	291.887
692.0000	-0.215044	3.24145E-005	-0.0613053	291.586
691.5000	-0.252267	-1.7009E-007	-0.0587087	291.332
691.0000	-0.0461797	1.23452E-005	-0.0562229	291.086
690.5000	0.00462431	2.64652E-005	-0.0545461	290.869
690.0000	-0.0201825	2.72916E-005	-0.0531719	290.67
689.5000	-0.0212431	1.63975E-005	-0.0518779	290.487
689.0000	-0.138805	3.12091E-006	-0.050093	290.333
688.5000	-0.194111	1.01759E-006	-0.0484611	290.243
688.0000	-0.220746	7.88388E-006	-0.0460728	290.249
687.5000	-0.347696	2.77949E-006	-0.0431512	290.352
687.0000	-0.539427	1.00275E-005	-0.0404429	290.513
686.5000	-0.816862	9.35664E-007	-0.0381691	290.722
686.0000	-0.74194	-8.22552E-007	-0.0370446	290.955
685.5000	-0.579185	1.37107E-006	-0.0368476	291.203
685.0000	-0.948348	-1.68458E-005	-0.0370966	291.446
684.5000	-1.03203	-1.27535E-005	-0.0378075	291.688
684.0000	-0.730149	-6.79988E-006	-0.0391371	291.91
683.5000	-0.802049	-9.92711E-006	-0.0399576	292.141
683.0000	-0.901418	9.91794E-006	-0.0409632	292.369
682.5000	-1.12291	-6.43886E-006	-0.0413794	292.606
682.0000	-0.713837	-1.31493E-005	-0.0419566	292.866
681.5000	-0.594111	-2.28048E-005	-0.0418685	293.141
681.0000	-0.489911	-1.85616E-005	-0.0417189	293.434
680.5000	-0.221911	-1.95526E-005	-0.0414461	293.715
680.0000	-0.0974762	-2.78887E-005	-0.0423578	293.954
679.5000	-0.217777	-3.87375E-005	-0.0439248	294.126
679.0000	-0.214903	-3.60566E-005	-0.0467644	294.225
678.5000	-0.153658	-2.43137E-005	-0.0485239	294.291
678.0000	0.138775	-5.41002E-006	-0.0503259	294.315
677.5000	0.392047	1.77682E-006	-0.0515196	294.305
677.0000	0.208194	8.88289E-006	-0.0519211	294.298
676.5000	0.51832	5.76425E-006	-0.051668	294.283
676.0000	0.418145	-3.3028E-006	-0.0514501	294.261
675.5000	0.332078	-1.13998E-005	-0.0511812	294.243
675.0000	0.299208	-2.0594E-005	-0.050626	294.238
674.5000	0.369291	-2.40476E-005	-0.0496467	294.243
674.0000	0.298149	3.75223E-006	-0.0487079	294.246
673.5000	0.207728	1.1226E-005	-0.0475594	294.269
673.0000	0.0984373	2.19083E-005	-0.0474326	294.289
672.5000	-0.0228839	2.53636E-005	-0.0473141	294.319
672.0000	0.105962	4.80676E-005	-0.0468331	294.361
671.5000	0.225009	6.28846E-005	-0.0458555	294.406
671.0000	0.0274427	6.69858E-005	-0.0447099	294.47
670.5000	0.159645	7.57007E-005	-0.0434121	294.53
670.0000	-0.0739755	8.45103E-005	-0.0423023	294.596
669.5000	0.0303869	7.88643E-005	-0.0416843	294.669
669.0000	-0.122995	8.47317E-005	-0.0410612	294.74
668.5000	0.0363437	7.31654E-005	-0.0403343	294.825
668.0000	-0.105789	4.7914E-005	-0.0397713	294.926
667.5000	-0.128356	4.7771E-005	-0.0393637	295.029
667.0000	-0.240016	4.96683E-005	-0.0391472	295.141
666.5000	-0.242417	5.92433E-005	-0.0389892	295.247
666.0000	-0.427075	6.20114E-005	-0.0395168	295.363
665.5000	-0.403026	4.28486E-005	-0.0394626	295.494
665.0000	-0.449258	4.1084E-005	-0.0385453	295.631
664.5000	-0.223638	3.82009E-005	-0.0373897	295.762
664.0000	-0.409558	2.00473E-005	-0.0369848	295.887
663.5000	-0.545138	1.15376E-005	-0.0376262	296.005
663.0000	-0.240959	3.53842E-006	-0.0375033	296.116
662.5000	-0.215384	1.11529E-005	-0.0375061	296.22
662.0000	-0.133893	-2.1188E-005	-0.0375296	296.317
661.5000	-0.378649	-1.8457E-005	-0.0370459	296.401
661.0000	-0.589176	-2.70058E-005	-0.0369666	296.472
660.5000	-0.540232	-2.35874E-006	-0.0371261	296.529
660.0000	-0.19474	1.4048E-005	-0.0370285	296.576
659.5000	-0.124166	2.86329E-005	-0.0372671	296.623
659.0000	-0.131603	2.25012E-005	-0.0373234	296.651
658.5000	-0.213774	2.3551E-005	-0.0372301	296.66
658.0000	-0.0953152	2.82262E-005	-0.0367445	296.655
657.5000	0.166203	3.91188E-005	-0.036852	296.628
657.0000	0.0474017	4.38861E-005	-0.0361176	296.579
656.5000	0.0256989	4.44389E-005	-0.0364272	296.514
656.0000	0.151839	7.01553E-005	-0.0366869	296.43
655.5000	0.314844	5.21268E-005	-0.0355903	296.324
655.0000	0.282574	6.20498E-005	-0.0352802	296.196
654.5000	0.260801	6.36348E-005	-0.0354159	296.074
654.0000	0.283449	7.9046E-005	-0.0347703	295.949
653.5000	0.306581	9.42969E-005	-0.0334664	295.827
653.0000	0.426686	0.000114853	-0.0318866	295.712
652.5000	0.586311	0.000130955	-0.0301564	295.638
652.0000	0.705023	0.000123884	-0.0282409	295.59
651.5000	0.38888	0.000128391	-0.0258937	295.564
651.0000	0.341301	0.000116679	-0.0230796	295.566
650.5000	0.4088	0.00012685	-0.0208029	295.613
650.0000	0.788345	0.000133432	-0.0180861	295.687
649.5000	0.595187	0.000141957	-0.0158124	295.793
649.0000	0.656676	0.000151024	-0.0133502	295.916
648.5000	0.794936	0.000135761	-0.0117415	296.069
648.0000	0.953168	0.000146272	-0.00967741	296.254
647.5000	0.715005	0.000142481	-0.00766711	296.46
647.0000	0.663262	0.000153292	-0.00599924	296.706
646.5000	0.782374	0.00013429	-0.00442111	296.964
646.0000	0.988017	0.000115154	-0.00181378	297.238
645.5000	1.02804	0.000120658	-0.000107883	297.499
645.0000	1.03267	9.95732E-005	0.000608368	297.762
644.5000	0.947344	0.000118796	0.00175273	298.019
644.0000	0.841282	0.000110714	0.0029336	298.242
643.5000	0.882545	0.000108177	0.00373285	298.442
643.0000	1.09025	0.000110313	0.00484206	298.642
642.5000	1.26515	0.000130436	0.00598487	298.818
642.0000	1.36981	0.000140567	0.0072584	298.968
641.5000	1.47124	0.000122423	0.00840069	299.1
641.0000	1.50568	0.000111537	0.00994767	299.222
640.5000	1.44281	0.000120209	0.0120075	299.343
640.0000	1.55082	0.000141061	0.0142426	299.447
639.5000	1.65492	0.000138242	0.0169267	299.551
639.0000	1.62391	0.000138018	0.0194699	299.658
638.5000	1.65799	0.000117701	0.022566	299.764
638.0000	1.82644	0.000149057	0.0250001	299.861
637.5000	1.57829	0.000162165	0.0273549	299.968
637.0000	1.80653	0.000194607	0.0306541	300.08
636.5000	2.15624	0.000175629	0.033664	300.193
636.0000	2.34316	0.000172482	0.0358802	300.298
635.5000	2.62469	0.000192469	0.038327	300.417
635.0000	2.58036	0.00019626	0.0411811	300.538
634.5000	2.59587	0.000196698	0.0439923	300.669
634.0000	2.3764	0.000193809	0.0467859	300.81
633.5000	2.21965	0.000198151	0.0492744	300.961
633.0000	2.3953	0.00020627	0.0523409	301.12
632.5000	2.49985	0.000216809	0.0550114	301.303
632.0000	2.82938	0.000237521	0.0578011	301.497
631.5000	2.67501	0.00022864	0.061028	301.706
631.0000	3.0331	0.000262479	0.0642287	301.917
630.5000	3.07588	0.000274885	0.0674166	302.128
630.0000	3.16754	0.00031359	0.0706728	302.339
629.5000	3.47638	0.000298593	0.0740856	302.55
629.0000	3.73056	0.00033106	0.0772592	302.763
628.5000	3.75819	0.000308242	0.0801718	302.969
628.0000	3.73352	0.000323424	0.0834374	303.183
627.5000	3.69413	0.000314837	0.0871034	303.402
627.0000	3.5999	0.000304569	0.0900865	303.606
626.5000	3.84758	0.00031478	0.0927721	303.811
626.0000	3.94316	0.000317107	0.0957266	304.034
625.5000	4.01291	0.000312356	0.0992786	304.254
625.0000	4.14237	0.000308884	0.103066	304.49
624.5000	4.26835	0.000295645	0.106912	304.735
624.0000	4.34685	0.000316133	0.110696	304.995
623.5000	4.50733	0.000319273	0.114504	305.262
623.0000	4.4522	0.000325381	0.118167	305.531
622.5000	4.57108	0.000323642	0.122011	305.816
622.0000	4.56443	0.000329989	0.125482	306.101
621.5000	4.60404	0.000321749	0.129084	306.406
621.0000	4.43942	0.000325762	0.132742	306.722
620.5000	4.53811	0.000309403	0.135907	307.026
620.0000	4.72622	0.000315757	0.139035	307.351
619.5000	4.82354	0.000315861	0.142945	307.743
619.0000	5.06387	0.000314868	0.147358	308.156
618.5000	5.04606	0.000316141	0.152337	308.599
618.0000	5.09369	0.000321814	0.157043	309.019
617.5000	5.48215	0.000332575	0.160719	309.444
617.0000	5.68297	0.000351565	0.16404	309.868
616.5000	5.82334	0.000363378	0.167252	310.277
616.0000	6.01583	0.000372401	0.170579	310.653
615.5000	5.97388	0.000346583	0.173492	311.028
615.0000	6.284	0.000354015	0.176432	311.415
614.5000	6.62237	0.000338765	0.179063	311.79
614.0000	6.61666	0.000318544	0.181536	312.145
613.5000	6.76406	0.00032544	0.184351	312.513
613.0000	6.71377	0.000340594	0.187016	312.882
612.5000	6.63728	0.000338319	0.18967	313.241
612.0000	7.04824	0.000343753	0.192489	313.604
611.5000	6.88734	0.000363831	0.19536	313.942
611.0000	6.81156	0.000380845	0.197698	314.279
610.5000	7.09503	0.000383324	0.199837	314.604
610.0000	7.11854	0.000381688	0.201665	314.905
609.5000	6.91976	0.000368013	0.204104	315.204
609.0000	6.65883	0.000366437	0.206225	315.468
608.5000	6.55974	0.00034493	0.208691	315.729
608.0000	6.4004	0.000357122	0.210735	315.981
607.5000	6.3773	0.000330177	0.212224	316.219
607.0000	6.25464	0.000320581	0.214301	316.478
606.5000	6.02269	0.000310312	0.216329	316.72
606.0000	5.86836	0.000335122	0.218957	316.951
605.5000	5.62007	0.000346239	0.221096	317.165
605.0000	5.55362	0.000328795	0.223526	317.372
604.5000	5.82255	0.00034021	0.225559	317.562
604.0000	5.32734	0.000334994	0.22775	317.74
603.5000	4.93114	0.000326966	0.2299	317.897
603.0000	5.19039	0.000314121	0.2316	318.05
602.5000	4.81559	0.000293462	0.233789	318.204
602.0000	4.89681	0.00030227	0.236024	318.345
601.5000	4.57707	0.000312934	0.23801	318.474
601.0000	4.65648	0.000327278	0.239979	318.601
600.5000	4.73462	0.000332811	0.242423	318.72
600.0000	4.42064	0.000312644	0.244526	318.831
599.5000	4.14102	0.000329617	0.247349	318.924
599.0000	4.21023	0.000345173	0.249639	319
598.5000	3.93244	0.000353386	0.252243	319.047
598.0000	4.0665	0.000365976	0.254249	319.076
597.5000	3.89242	0.000354761	0.256153	319.113
597.0000	3.92506	0.000332031	0.258442	319.159
596.5000	3.77086	0.000321452	0.260776	319.183
596.0000	3.74222	0.000339136	0.263207	319.211
595.5000	3.50847	0.000315658	0.265452	319.237
595.0000	3.33302	0.000333881	0.267789	319.232
594.5000	3.3655	0.000345206	0.270234	319.238
594.0000	3.27271	0.000356831	0.271985	319.228
593.5000	3.26032	0.000344302	0.274205	319.209
593.0000	2.85692	0.000320881	0.276947	319.208
592.5000	2.83321	0.000336452	0.279124	319.219
592.0000	2.69518	0.000341661	0.281273	319.251
591.5000	2.70279	0.00033672	0.283058	319.276
591.0000	2.62567	0.000342583	0.285361	319.307
590.5000	2.69066	0.000342864	0.287647	319.378
590.0000	2.52869	0.00033553	0.290099	319.457
589.5000	2.41553	0.000330631	0.292702	319.535
589.0000	2.34596	0.000312676	0.295291	319.616
588.5000	2.26742	0.000310091	0.297757	319.711
588.0000	2.30242	0.00030136	0.300551	319.823
587.5000	2.2586	0.000313993	0.303431	319.961
587.0000	2.24072	0.000284876	0.306299	320.135
586.5000	2.03746	0.000267683	0.309027	320.304
586.0000	1.76454	0.000257646	0.312505	320.496
585.5000	1.81961	0.000265386	0.315636	320.707
585.0000	1.56785	0.000270389	0.318752	320.934
584.5000	1.7428	0.000292439	0.321815	321.156
584.0000	1.55507	0.000298121	0.325359	321.402
583.5000	1.35617	0.000284093	0.329082	321.662
583.0000	1.38585	0.000280308	0.333372	321.957
582.5000	1.07686	0.000258988	0.337547	322.282
582.0000	0.894916	0.000254047	0.34154	322.585
581.5000	0.954461	0.000280205	0.346016	322.941
581.0000	0.900149	0.000287216	0.350885	323.311
580.5000	0.73349	0.000295742	0.356006	323.713
580.0000	0.331624	0.000290461	0.360712	324.093
579.5000	0.403556	0.000297579	0.365432	324.489
579.0000	0.670816	0.000338029	0.370285	324.888
578.5000	0.477952	0.00033707	0.37566	325.297
578.0000	0.73461	0.000360769	0.38104	325.738
577.5000	0.419962	0.000346875	0.386369	326.234
577.0000	0.434867	0.000343785	0.392392	326.711
576.5000	0.710785	0.000337015	0.399054	327.247
576.0000	0.628276	0.00033392	0.405501	327.768
575.5000	0.652666	0.0003112	0.412407	328.32
575.0000	0.930866	0.000325532	0.418407	328.84
574.5000	1.23852	0.000347425	0.425337	329.423
574.0000	1.1802	0.000337952	0.432496	330
573.5000	1.04543	0.000354938	0.439874	330.611
573.0000	0.818701	0.000349165	0.447069	331.253
572.5000	0.80594	0.000349589	0.453768	331.854
572.0000	1.01269	0.000344396	0.461447	332.562
571.5000	1.23082	0.00036687	0.469394	333.274
571.0000	1.14379	0.000358568	0.478278	334.024
570.5000	1.08607	0.000352028	0.487022	334.815
570.0000	1.16027	0.000352729	0.495433	335.587
569.5000	1.1702	0.000357842	0.504836	336.396
569.0000	1.31694	0.000389925	0.514331	337.212
568.5000	1.03033	0.000362239	0.522965	338.009
568.0000	1.26244	0.000360661	0.53153	338.828
567.5000	1.08841	0.000377351	0.540315	339.663
567.0000	1.15771	0.000390808	0.549297	340.481
566.5000	1.01875	0.000367708	0.558146	341.269
566.0000	1.19698	0.000392934	0.566903	342.047
565.5000	1.50563	0.000388172	0.575367	342.833
565.0000	1.72459	0.000380352	0.583869	343.589
564.5000	1.79213	0.00037086	0.592553	344.358
564.0000	1.61921	0.000389714	0.600855	345.059
563.5000	1.58781	0.000388859	0.608508	345.729
563.0000	1.58183	0.000398521	0.61612	346.426
562.5000	1.54818	0.000412828	0.623239	347.05
562.0000	1.86264	0.000432457	0.630164	347.65
561.5000	1.50539	0.000418086	0.637959	348.29
561.0000	1.2576	0.000425837	0.644847	348.878
560.5000	1.42757	0.000446516	0.651446	349.449
560.0000	1.62302	0.000469572	0.658133	350.001
559.5000	1.53799	0.000486654	0.664648	350.489
559.0000	1.61048	0.000488045	0.670256	350.908
558.5000	1.327	0.000465096	0.675064	351.281
558.0000	1.27504	0.000442346	0.679208	351.595
557.5000	0.834423	0.00042456	0.683366	351.876
557.0000	0.327832	0.000399283	0.687134	352.101
556.5000	0.196772	0.00037783	0.690104	352.291
556.0000	0.244209	0.000371991	0.692138	352.437
555.5000	0.426238	0.000343872	0.694116	352.541
555.0000	0.513313	0.00033	0.695762	352.588
554.5000	0.282087	0.000312266	0.697364	352.59
554.0000	0.238321	0.000268337	0.697942	352.542
553.5000	0.224085	0.000258712	0.697882	352.425
553.0000	0.443403	0.000267303	0.697671	352.302
552.5000	0.0836557	0.000234595	0.697577	352.139
552.0000	-0.238232	0.000197218	0.69686	351.903
551.5000	-0.492481	0.000168803	0.695889	351.653
551.0000	-0.439103	0.000158724	0.69432	351.383
550.5000	-0.368038	0.00015486	0.692455	351.064
550.0000	-0.5614	0.000173562	0.690659	350.724
549.5000	-0.503297	0.000192112	0.688813	350.359
549.0000	-0.288165	0.000215325	0.686336	349.99
548.5000	-0.013289	0.000238376	0.683913	349.64
548.0000	0.0744198	0.000234699	0.682082	349.225
547.5000	-0.308765	0.000247056	0.680197	348.831
547.0000	-0.301318	0.000264128	0.67829	348.412
546.5000	-0.492281	0.000276912	0.67605	348.025
546.0000	-0.699886	0.000274394	0.673281	347.656
545.5000	-0.559042	0.00030266	0.671558	347.284
545.0000	-0.736765	0.000293634	0.669865	346.963
544.5000	-0.528547	0.000300033	0.667979	346.611
544.0000	-0.49604	0.000314173	0.66593	346.289
543.5000	-0.349137	0.000320733	0.664328	346.002
543.0000	-0.232436	0.000354958	0.663037	345.73
542.5000	-0.190962	0.000366756	0.662273	345.485
542.0000	-0.302012	0.000384338	0.661322	345.255
541.5000	-0.0424832	0.000375117	0.660614	345.071
541.0000	-0.286309	0.000374468	0.659905	344.91
540.5000	-0.276436	0.000374379	0.659926	344.751
540.0000	0.0399209	0.000383476	0.660321	344.615
539.5000	0.145178	0.00040981	0.660728	344.534
539.0000	0.0973926	0.000415632	0.661011	344.477
538.5000	0.031156	0.000388458	0.661902	344.463
538.0000	0.556423	0.000397163	0.663279	344.456
537.5000	0.649946	0.000393765	0.664968	344.493
537.0000	0.938132	0.000401608	0.666769	344.566
536.5000	0.828965	0.000392961	0.669052	344.673
536.0000	0.933756	0.000387159	0.671914	344.823
535.5000	1.27343	0.000384441	0.674869	344.992
535.0000	1.24432	0.000380259	0.678418	345.206
534.5000	1.4692	0.000375587	0.681807	345.415
534.0000	1.89	0.00036759	0.68573	345.684
533.5000	1.75082	0.000365565	0.689707	345.982
533.0000	1.6802	0.000341361	0.693579	346.28
532.5000	1.72111	0.000337294	0.697752	346.617
532.0000	1.47948	0.000315745	0.702432	346.994
531.5000	1.82264	0.000307071	0.707604	347.408
531.0000	2.01146	0.000292683	0.713717	347.858
530.5000	2.24249	0.000282508	0.719454	348.311
530.0000	2.00481	0.000275936	0.725416	348.806
529.5000	2.20542	0.000289832	0.7314	349.305
529.0000	2.21734	0.000285574	0.737437	349.78
528.5000	2.43725	0.000294888	0.743462	350.279
528.0000	2.5937	0.000291488	0.749409	350.772
527.5000	2.39085	0.000280181	0.755789	351.285
527.0000	2.46552	0.000284485	0.762966	351.87
526.5000	2.31586	0.000297116	0.769613	352.437
526.0000	2.17401	0.000291489	0.776924	353.042
525.5000	1.92733	0.00027217	0.784182	353.641
525.0000	1.95761	0.000281868	0.79144	354.245
524.5000	1.9016	0.000289122	0.798599	354.828
524.0000	1.94177	0.000302077	0.805369	355.376
523.5000	1.5167	0.00029886	0.812129	355.959
523.0000	0.852599	0.00028342	0.818704	356.522
522.5000	0.654811	0.000270681	0.824864	357.071
522.0000	0.901225	0.000285692	0.831558	357.647
521.5000	0.609491	0.000274964	0.838517	358.23
521.0000	0.14529	0.000267975	0.845239	358.808
520.5000	-0.144835	0.000244767	0.851866	359.379
520.0000	-0.394715	0.000224792	0.85796	359.904
519.5000	-0.938381	0.000203808	0.86444	360.442
519.0000	-1.16554	0.000195909	0.870593	360.973
518.5000	-1.30387	0.000191957	0.876118	361.472
518.0000	-1.41173	0.000153851	0.882357	362.013
517.5000	-2.08998	0.000139797	0.888782	362.565
517.0000	-1.92499	0.000135417	0.89523	363.096
516.5000	-1.73063	0.000144812	0.901718	363.627
516.0000	-1.73164	0.000161377	0.907937	364.154
515.5000	-1.94395	0.000149846	0.913532	364.663
515.0000	-1.66327	0.000146356	0.918847	365.131
514.5000	-1.70689	0.000138355	0.924261	365.624
514.0000	-1.75983	0.000144671	0.929216	366.058
513.5000	-2.16976	0.000103326	0.934365	366.503
513.0000	-2.17733	7.67095E-005	0.939364	366.973
512.5000	-2.28202	5.89306E-005	0.944828	367.467
512.0000	-2.09055	6.9666E-005	0.949924	367.913
511.5000	-1.96777	8.2354E-005	0.954495	368.343
511.0000	-1.50907	8.97699E-005	0.958944	368.741
510.5000	-1.4384	5.40506E-005	0.963259	369.095
510.0000	-1.35641	5.7732E-005	0.967439	369.439
509.5000	-1.3867	8.45934E-005	0.971352	369.769
509.0000	-1.02976	0.000103931	0.974981	370.082
508.5000	-1.15153	7.07883E-005	0.978389	370.36
508.0000	-1.5533	6.93934E-005	0.981838	370.606
507.5000	-1.2818	6.19072E-005	0.984846	370.794
507.0000	-1.39218	7.98264E-005	0.987722	370.96
506.5000	-1.58573	8.75882E-005	0.990305	371.098
506.0000	-1.61962	9.71882E-005	0.992371	371.224
505.5000	-1.64953	0.000115895	0.994209	371.322
505.0000	-1.5927	8.8971E-005	0.99598	371.404
504.5000	-1.52858	8.78598E-005	0.997667	371.462
504.0000	-1.28035	9.69703E-005	0.998814	371.466
503.5000	-1.40294	8.14729E-005	0.999454	371.419
503.0000	-1.55976	8.83906E-005	0.999718	371.311
502.5000	-1.41023	0.000111675	0.999536	371.175
502.0000	-1.65882	0.000123863	0.999148	371.022
501.5000	-2.00887	9.54281E-005	0.99847	370.817
501.0000	-2.08835	6.57812E-005	0.997725	370.591
500.5000	-2.03428	8.34458E-005	0.996818	370.32
500.0000	-1.93475	7.02356E-005	0.995549	369.99
499.5000	-2.04627	5.44129E-005	0.993405	369.589
499.0000	-1.90764	5.5666E-005	0.9909	369.073
498.5000	-1.98894	2.10584E-005	0.988096	368.439
498.0000	-1.79703	4.55601E-005	0.984966	367.676
497.5000	-1.93714	2.39769E-005	0.981758	366.732
497.0000	-2.06212	1.57276E-005	0.979045	365.745
496.5000	-2.27107	6.79108E-005	0.976527	364.705
496.0000	-2.55036	4.20663E-005	0.974912	363.825
495.5000	-2.92037	6.13966E-005	0.973745	363.132
495.0000	-2.65538	4.50911E-005	0.972047	362.61
494.5000	-2.99914	3.50547E-005	0.969923	362.153
494.0000	-3.39513	1.4263E-005	0.967583	361.72
493.5000	-3.53776	3.04221E-005	0.965005	361.261
493.0000	-3.70739	7.26552E-006	0.962755	360.851
492.5000	-4.26887	1.67791E-005	0.96038	360.43
492.0000	-4.29517	-9.42786E-006	0.957801	360.003
491.5000	-4.51454	-3.13092E-005	0.95528	359.629
491.0000	-4.72645	-5.08326E-005	0.953105	359.293
490.5000	-5.09532	-6.24471E-005	0.951012	359.006
490.0000	-5.76022	-8.94167E-005	0.949057	358.788
489.5000	-5.90736	-0.000111813	0.94714	358.638
489.0000	-6.4255	-0.000110832	0.945052	358.5
488.5000	-6.52226	-0.000127862	0.942433	358.32
488.0000	-6.5414	-0.000152334	0.938982	357.975
487.5000	-6.82991	-0.000162574	0.935001	357.405
487.0000	-7.16655	-0.000147254	0.931796	356.716
486.5000	-7.32336	-0.000143944	0.928467	355.888
486.0000	-7.50183	-0.000139123	0.925433	355.041
485.5000	-7.7127	-0.000158773	0.923563	354.202
485.0000	-8.06705	-0.000150346	0.922504	353.452
484.5000	-8.42076	-0.000142331	0.921179	352.862
484.0000	-8.54136	-0.000111713	0.919414	352.364
483.5000	-9.02829	-9.95824E-005	0.91774	351.967
483.0000	-8.96857	-8.69255E-005	0.91559	351.603
482.5000	-9.56829	-0.000110244	0.913159	351.299
482.0000	-9.69899	-0.000101836	0.910537	351.036
481.5000	-9.72608	-0.00011374	0.908031	350.782
481.0000	-9.80095	-0.00010879	0.905834	350.569
480.5000	-9.8631	-0.000104049	0.903421	350.38
480.0000	-10.2753	-0.000111718	0.900584	350.189
479.5000	-10.7532	-9.57296E-005	0.897592	349.992
479.0000	-10.9114	-9.1836E-005	0.89322	349.678
478.5000	-10.7812	-9.11713E-005	0.888213	349.111
478.0000	-11.0402	-0.000132671	0.884035	348.269
477.5000	-11.3576	-0.000124594	0.88239	347.528
477.0000	-11.5429	-0.00010886	0.881124	347.014
476.5000	-11.4436	-0.000121009	0.877078	346.482
476.0000	-11.3145	-0.000111102	0.871711	345.749
475.5000	-11.4576	-0.000131932	0.865803	344.752
475.0000	-11.9197	-0.000147883	0.859785	343.53
474.5000	-12.1361	-0.000141257	0.854515	342.203
474.0000	-12.1049	-0.000131573	0.849667	340.742
473.5000	-12.2834	-0.000132116	0.844193	339.039
473.0000	-12.443	-0.000124526	0.838582	337.164
472.5000	-12.5424	-9.26954E-005	0.83378	335.148
472.0000	-12.5442	-8.74192E-005	0.831106	333.434
471.5000	-12.602	-9.04284E-005	0.828937	332.047
471.0000	-12.3645	-7.92689E-005	0.826922	331.2
470.5000	-12.3049	-5.60932E-005	0.824698	330.637
470.0000	-12.4526	-5.40439E-005	0.822026	330.412
469.5000	-12.4356	-5.39852E-005	0.817271	330.278
469.0000	-12.5343	-6.56695E-005	0.808499	329.776
468.5000	-12.9609	-6.41757E-005	0.799518	328.844
468.0000	-12.9888	-7.65543E-005	0.792696	327.796
467.5000	-13.1022	-8.78069E-005	0.787445	326.877
467.0000	-12.9149	-7.43031E-005	0.783425	326.181
466.5000	-12.9221	-6.75186E-005	0.77978	325.693
466.0000	-12.8827	-6.53096E-005	0.775312	325.391
465.5000	-12.753	-4.27179E-005	0.770404	325.3
465.0000	-12.7387	-1.31826E-005	0.764945	325.465
464.5000	-12.7643	-2.76751E-005	0.758061	325.794
464.0000	-12.8819	-4.396E-005	0.749064	325.987
463.5000	-12.8781	-3.15038E-005	0.738764	325.842
463.0000	-12.7809	-2.26951E-005	0.728771	325.356
462.5000	-13.1664	-2.41784E-005	0.7202	324.688
462.0000	-13.3008	-2.6532E-005	0.712733	323.961
461.5000	-12.9056	-6.46226E-006	0.705971	323.329
461.0000	-12.7146	7.63568E-006	0.699183	322.808
460.5000	-12.5019	-9.54342E-006	0.692031	322.408
460.0000	-12.2127	1.07685E-005	0.684983	322.105
459.5000	-12.0463	2.69135E-005	0.677645	321.867
459.0000	-11.8996	4.56786E-005	0.669187	321.565
458.5000	-11.7105	5.66857E-005	0.660383	321.186
458.0000	-11.5948	8.6786E-005	0.651144	320.655
457.5000	-11.4879	8.30654E-005	0.641753	319.9
457.0000	-11.2991	7.58144E-005	0.63255	318.928
456.5000	-11.2275	7.4496E-005	0.624861	317.982
456.0000	-10.8639	9.86393E-005	0.61695	317.131
455.5000	-10.5792	0.000111224	0.607278	316.133
455.0000	-10.5157	0.000121123	0.598115	315.002
454.5000	-10.2785	0.000123234	0.590726	313.909
454.0000	-9.87469	0.000125511	0.584148	313.072
453.5000	-9.50232	0.000147998	0.576555	312.446
453.0000	-9.57899	0.000135718	0.568234	311.821
452.5000	-9.4995	0.000136499	0.560206	311.18
452.0000	-9.46449	0.000161713	0.55233	310.491
451.5000	-9.19405	0.000170055	0.54417	309.781
451.0000	-9.24693	0.000155739	0.536435	309.103
450.5000	-8.98226	0.000153326	0.528441	308.384
450.0000	-8.80235	0.000146195	0.521253	307.694
449.5000	-8.63352	0.000134505	0.514695	307.1
449.0000	-8.32632	0.000139872	0.50874	306.689
448.5000	-8.54409	0.000141682	0.501554	306.31
448.0000	-8.31931	0.00015943	0.49384	305.82
447.5000	-8.0153	0.000160791	0.487369	305.316
447.0000	-7.92408	0.000152814	0.482597	305.039
446.5000	-7.86079	0.000168012	0.477466	304.952
446.0000	-7.51701	0.000171542	0.469593	304.736
445.5000	-7.38258	0.000183582	0.461387	304.214
445.0000	-7.28197	0.000194371	0.454244	303.516
444.5000	-7.01175	0.000207701	0.447465	302.775
444.0000	-6.54428	0.000215692	0.440959	302.034
443.5000	-6.31247	0.000197822	0.434313	301.211
443.0000	-6.3208	0.000219758	0.428649	300.468
442.5000	-6.04619	0.000243108	0.423165	299.752
442.0000	-5.69357	0.000250408	0.418107	299.151
441.5000	-5.43119	0.000263461	0.412401	298.521
441.0000	-5.1899	0.000286078	0.407128	297.95
440.5000	-5.22698	0.000290236	0.402068	297.402
440.0000	-4.90809	0.000285602	0.39667	296.827
439.5000	-4.43195	0.000307574	0.390853	296.221
439.0000	-4.42222	0.000317753	0.384676	295.588
438.5000	-4.06453	0.000325103	0.378077	294.938
438.0000	-3.98626	0.000336628	0.371471	294.308
437.5000	-3.85135	0.000334451	0.36514	293.695
437.0000	-3.46337	0.000329379	0.358341	293.058
436.5000	-3.14405	0.000334436	0.352973	292.52
436.0000	-2.94376	0.000351264	0.347843	292.023
435.5000	-2.90987	0.000353032	0.342191	291.543
435.0000	-2.71931	0.000354849	0.33617	291.067
434.5000	-2.72856	0.000362716	0.330247	290.602
434.0000	-2.69442	0.000350307	0.324232	290.096
433.5000	-2.7709	0.000364597	0.318543	289.591
433.0000	-2.69895	0.000362144	0.312912	289.04
432.5000	-2.42019	0.000359536	0.307477	288.503
432.0000	-2.19668	0.000370569	0.301478	287.919
431.5000	-2.22864	0.000361875	0.295683	287.344
431.0000	-1.92706	0.000365397	0.290004	286.767
430.5000	-1.74015	0.000387552	0.284449	286.19
430.0000	-1.62765	0.000372691	0.279282	285.636
429.5000	-1.40775	0.000363297	0.273727	285.052
429.0000	-1.21094	0.000373062	0.268292	284.474
428.5000	-1.10007	0.000376631	0.262882	283.907
428.0000	-1.00334	0.000377448	0.256902	283.315
427.5000	-0.973052	0.000374611	0.251827	282.785
427.0000	-0.952055	0.000374665	0.24693	282.261
426.5000	-0.978279	0.000370789	0.242114	281.735
426.0000	-0.789523	0.000367515	0.237095	281.173
425.5000	-0.501652	0.000373787	0.232451	280.606
425.0000	-0.383886	0.000374895	0.22746	280
424.5000	-0.142926	0.00039388	0.22254	279.367
424.0000	0.0920714	0.000391192	0.217828	278.737
423.5000	0.0600998	0.000383373	0.213907	278.182
423.0000	0.0647785	0.000378621	0.209693	277.667
422.5000	-0.0512619	0.000364156	0.205493	277.211
422.0000	0.0828989	0.000366209	0.201031	276.761
421.5000	0.202017	0.000370152	0.196823	276.343
421.0000	0.434054	0.000371193	0.193086	275.964
420.5000	0.619374	0.000369698	0.189092	275.565
420.0000	0.564812	0.000374004	0.18522	275.162
419.5000	0.640835	0.000369418	0.18129	274.737
419.0000	0.921432	0.000374148	0.177409	274.327
418.5000	1.16162	0.000372923	0.173785	273.975
418.0000	1.19872	0.000384387	0.170471	273.629
417.5000	1.21859	0.000391676	0.166961	273.285
417.0000	1.21363	0.000388414	0.163853	272.963
416.5000	1.39565	0.000385783	0.161	272.699
416.0000	1.44445	0.000377833	0.158043	272.489
415.5000	1.70868	0.000386874	0.154753	272.265
415.0000	1.79649	0.000391253	0.151394	271.998
414.5000	2.06591	0.000406279	0.148393	271.69
414.0000	2.23123	0.000409203	0.14585	271.381
413.5000	2.25667	0.00041766	0.143441	271.065
413.0000	2.18226	0.000421024	0.141142	270.773
412.5000	2.16508	0.000421515	0.138941	270.513
412.0000	2.26459	0.000424613	0.136903	270.277
411.5000	2.36337	0.000423495	0.134426	270.026
411.0000	2.45329	0.0004282	0.132365	269.815
410.5000	2.32452	0.000422861	0.130567	269.62
410.0000	2.38383	0.000428297	0.128911	269.438
409.5000	2.45598	0.000431871	0.127271	269.269
409.0000	2.52651	0.000428593	0.125642	269.119
408.5000	2.66693	0.000428669	0.123605	268.96
408.0000	2.61483	0.00043326	0.121578	268.817
407.5000	2.7104	0.000438159	0.119409	268.655
407.0000	2.60403	0.000435095	0.117505	268.49
406.5000	2.48512	0.000418283	0.11579	268.327
406.0000	2.51167	0.000421054	0.114156	268.167
405.5000	2.41306	0.000423244	0.112421	268.004
405.0000	2.41075	0.000422996	0.110603	267.811
404.5000	2.44622	0.000420687	0.109004	267.618
404.0000	2.15816	0.000413909	0.107657	267.393
403.5000	2.04845	0.000422207	0.106241	267.138
403.0000	1.98666	0.000417198	0.105345	266.885
402.5000	1.99376	0.000418141	0.103798	266.592
402.0000	1.93843	0.000419786	0.102962	266.332
401.5000	1.76542	0.000397955	0.102188	266.048
401.0000	1.59571	0.000394145	0.101292	265.792
400.5000	1.49755	0.000394407	0.100419	265.55
400.0000	1.25408	0.000390292	0.0994041	265.329
399.5000	1.06664	0.000374712	0.0990131	265.126
399.0000	1.00201	0.000376165	0.0986891	264.962
398.5000	0.815898	0.000371573	0.0981984	264.816
398.0000	0.792786	0.000378685	0.0975833	264.685
397.5000	0.678241	0.000368047	0.0968463	264.569
397.0000	0.65502	0.000360442	0.0965173	264.484
396.5000	0.576249	0.000353993	0.0960321	264.433
396.0000	0.495929	0.000354291	0.0955195	264.397
395.5000	0.540245	0.000353564	0.0947872	264.399
395.0000	0.488065	0.000339875	0.0942182	264.43
394.5000	0.512589	0.00034789	0.0938232	264.49
394.0000	0.378776	0.000346905	0.0934871	264.578
393.5000	0.38726	0.00034482	0.0928088	264.677
393.0000	0.403682	0.00035194	0.0918356	264.778
392.5000	0.540375	0.000364171	0.091202	264.883
392.0000	0.453169	0.00035196	0.0908424	264.978
391.5000	0.435412	0.000357776	0.0908172	265.067
391.0000	0.416511	0.000347365	0.090518	265.134
390.5000	0.436668	0.000339742	0.0901369	265.204
390.0000	0.338859	0.000339578	0.0897671	265.266
389.5000	0.443227	0.000356274	0.0897184	265.317
389.0000	0.396679	0.000349251	0.0898038	265.359
388.5000	0.390049	0.00034711	0.089577	265.39
388.0000	0.373248	0.000345238	0.0893532	265.427
387.5000	0.283459	0.000342552	0.0893929	265.456
387.0000	0.00782201	0.000344901	0.0900154	265.492
386.5000	-0.0784971	0.000354011	0.0904296	265.52
386.0000	-0.244939	0.000343495	0.0910698	265.552
385.5000	-0.502054	0.000327401	0.0915565	265.566
385.0000	-0.591335	0.000320045	0.092185	265.586
384.5000	-0.750316	0.00030513	0.0929342	265.615
384.0000	-0.899278	0.000306897	0.093788	265.641
383.5000	-0.808306	0.000313194	0.0944004	265.669
383.0000	-0.756187	0.000314025	0.0948477	265.695
382.5000	-0.712487	0.000321491	0.0955022	265.732
382.0000	-0.941065	0.000326703	0.0964103	265.754
381.5000	-1.00704	0.000319793	0.0975233	265.782
381.0000	-1.24463	0.000324767	0.098407	265.819
380.5000	-1.30711	0.000325953	0.0991961	265.863
380.0000	-1.62262	0.000329891	0.100194	265.904
379.5000	-1.79578	0.000331313	0.101297	265.951
379.0000	-1.92577	0.000319939	0.102057	266
378.5000	-1.8605	0.000318638	0.102406	266.041
378.0000	-1.83646	0.000322665	0.102839	266.084
377.5000	-1.73997	0.000322373	0.103416	266.126
377.0000	-1.64388	0.000330126	0.103822	266.153
376.5000	-1.75992	0.000336521	0.104492	266.181
376.0000	-1.68687	0.000342094	0.105093	266.196
375.5000	-1.67915	0.000342684	0.105392	266.201
375.0000	-1.70725	0.000347748	0.105668	266.196
374.5000	-1.79911	0.000342925	0.105997	266.188
374.0000	-1.78404	0.000337376	0.106187	266.165
373.5000	-1.77542	0.000330777	0.106352	266.148
373.0000	-1.6456	0.000308201	0.106227	266.126
372.5000	-1.55935	0.000299895	0.106284	266.112
372.0000	-1.39621	0.000296266	0.106332	266.091
371.5000	-1.27867	0.000299962	0.10644	266.084
371.0000	-1.17384	0.000304135	0.106792	266.082
370.5000	-0.937825	0.000323039	0.107108	266.073
370.0000	-0.908418	0.000319815	0.107336	266.07
369.5000	-0.856585	0.00030107	0.107537	266.071
369.0000	-0.838078	0.000298874	0.107691	266.069
368.5000	-0.658376	0.000308807	0.108072	266.082
368.0000	-0.553269	0.000300641	0.108383	266.113
367.5000	-0.49205	0.000316226	0.108719	266.141
367.0000	-0.1597	0.000305627	0.109466	266.189
366.5000	0.162017	0.000314617	0.109912	266.239
366.0000	0.434839	0.000323678	0.110446	266.307
365.5000	0.783599	0.000337408	0.110943	266.374
365.0000	1.07621	0.000349236	0.11127	266.438
364.5000	1.29887	0.00035739	0.111897	266.508
364.0000	1.53865	0.000358514	0.112518	266.594
363.5000	1.8039	0.000360198	0.113312	266.668
363.0000	2.17009	0.000346093	0.114072	266.743
362.5000	2.47897	0.000341488	0.114805	266.828
362.0000	3.0085	0.00035216	0.115462	266.909
361.5000	3.39205	0.000364379	0.116371	266.997
361.0000	3.81014	0.000378059	0.117215	267.081
360.5000	4.08851	0.000376512	0.117792	267.161
360.0000	4.56318	0.000389723	0.118426	267.238
359.5000	5.07399	0.000382112	0.118888	267.307
359.0000	5.38322	0.000381453	0.11917	267.38
358.5000	5.54793	0.000391763	0.119247	267.446
358.0000	5.70105	0.000381016	0.119258	267.503
357.5000	5.95544	0.000388237	0.119326	267.566
357.0000	6.27449	0.000382982	0.119627	267.627
356.5000	6.56933	0.00039029	0.120224	267.686
356.0000	6.87145	0.000388574	0.12041	267.741
355.5000	7.13164	0.000393619	0.120534	267.792
355.0000	7.4869	0.000391048	0.120633	267.851
354.5000	7.68531	0.000401781	0.120664	267.907
354.0000	7.83116	0.000404979	0.120732	267.955
353.5000	7.94394	0.000403623	0.12089	268.011
353.0000	8.03424	0.000411009	0.120848	268.057
352.5000	8.23397	0.000409307	0.12105	268.123
352.0000	8.52336	0.000405837	0.121291	268.19
351.5000	8.55599	0.000402055	0.121494	268.251
351.0000	8.68563	0.000407568	0.122076	268.316
350.5000	8.86201	0.000398639	0.1226	268.365
350.0000	8.93532	0.000405756	0.123305	268.427
349.5000	9.13257	0.000406531	0.12409	268.489
349.0000	9.24282	0.000412386	0.12503	268.556
348.5000	9.31594	0.000412053	0.126162	268.633
348.0000	9.47523	0.000410956	0.126863	268.695
347.5000	9.42362	0.000421513	0.128007	268.771
347.0000	9.49423	0.000413945	0.129167	268.844
346.5000	9.49415	0.000404621	0.130056	268.912
346.0000	9.65514	0.00040773	0.13075	268.969
345.5000	9.84961	0.000397084	0.131649	269.029
345.0000	9.90432	0.000393285	0.132642	269.094
344.5000	10.0318	0.000386709	0.13371	269.165
344.0000	10.1198	0.000384805	0.1348	269.222
343.5000	10.2152	0.000386805	0.135605	269.277
343.0000	10.1846	0.000381561	0.136338	269.335
342.5000	10.2912	0.000389374	0.136991	269.398
342.0000	10.3699	0.000388059	0.137741	269.474
341.5000	10.476	0.000385008	0.138632	269.552
341.0000	10.5289	0.000395025	0.139532	269.614
340.5000	10.6148	0.000386858	0.140305	269.688
340.0000	10.5414	0.00038427	0.140955	269.755
339.5000	10.5808	0.000372413	0.141412	269.828
339.0000	10.5393	0.000360633	0.142214	269.906
338.5000	10.6314	0.00037879	0.142966	269.974
338.0000	10.5557	0.000385033	0.143724	270.047
337.5000	10.501	0.00039013	0.144542	270.133
337.0000	10.5608	0.000399334	0.145137	270.209
336.5000	10.5043	0.000397545	0.146	270.289
336.0000	10.5209	0.000395397	0.14685	270.38
335.5000	10.4981	0.000389188	0.147601	270.461
335.0000	10.2752	0.000395083	0.148421	270.549
334.5000	10.2027	0.000396865	0.149171	270.639
334.0000	10.1822	0.000380595	0.150099	270.733
333.5000	10.1367	0.00037143	0.151472	270.836
333.0000	9.88003	0.000370618	0.152371	270.928
332.5000	9.69648	0.000353991	0.15308	271.029
332.0000	9.58331	0.000355229	0.153959	271.138
331.5000	9.50034	0.000359661	0.154969	271.24
331.0000	9.38327	0.000358768	0.156149	271.353
330.5000	9.19869	0.000353735	0.15688	271.446
330.0000	8.87078	0.000335428	0.157689	271.538
329.5000	8.66336	0.000329115	0.158632	271.643
329.0000	8.54252	0.000304211	0.159543	271.755
328.5000	8.40226	0.000295707	0.160507	271.859
328.0000	8.23485	0.000298061	0.16115	271.945
327.5000	7.89513	0.000285588	0.161886	272.022
327.0000	7.69272	0.000282715	0.162836	272.095
326.5000	7.70818	0.000282409	0.163939	272.179
326.0000	7.33742	0.000275855	0.16513	272.268
325.5000	7.11671	0.000269694	0.166235	272.369
325.0000	6.82024	0.000263924	0.167059	272.475
324.5000	6.90288	0.000248543	0.168161	272.592
324.0000	6.77022	0.000236755	0.169478	272.712
323.5000	6.67814	0.000232596	0.170741	272.818
323.0000	6.49759	0.000225439	0.171845	272.933
322.5000	6.36818	0.000221302	0.172862	273.044
322.0000	6.29676	0.000227831	0.173776	273.159
321.5000	6.32585	0.00021963	0.175102	273.288
321.0000	6.09456	0.0002053	0.176503	273.421
320.5000	6.10797	0.000213509	0.177933	273.551
320.0000	5.94938	0.000218515	0.178999	273.663
319.5000	5.91669	0.000209399	0.180163	273.783
319.0000	5.86361	0.000225981	0.181314	273.926
318.5000	5.75535	0.000220077	0.182685	274.097
318.0000	5.64651	0.000205889	0.183859	274.246
317.5000	5.76974	0.000191985	0.185123	274.384
317.0000	5.60844	0.000186039	0.186485	274.505
316.5000	5.48189	0.000180453	0.187905	274.617
316.0000	5.43194	0.000175806	0.189542	274.751
315.5000	5.35134	0.000179178	0.19083	274.887
315.0000	5.24358	0.000168473	0.192302	275.05
314.5000	5.11082	0.000158471	0.193712	275.208
314.0000	4.99198	0.000164083	0.195517	275.391
313.5000	4.97831	0.000154922	0.197332	275.572
313.0000	5.05353	0.000171698	0.199305	275.778
312.5000	4.99828	0.000156396	0.201109	275.979
312.0000	4.70388	0.000126396	0.203377	276.204
311.5000	4.62708	0.000116259	0.205843	276.458
311.0000	4.4467	9.82542E-005	0.208668	276.722
310.5000	4.43244	7.83008E-005	0.21134	277.013
310.0000	4.36268	7.86533E-005	0.214232	277.302
309.5000	4.24973	6.77157E-005	0.217341	277.609
309.0000	4.06659	5.6912E-005	0.220926	277.965
308.5000	3.93406	4.02301E-005	0.224393	278.34
308.0000	3.85587	4.52366E-005	0.227943	278.716
307.5000	3.55615	3.18362E-005	0.231984	279.133
307.0000	3.33997	2.56796E-005	0.236149	279.54
306.5000	3.24586	2.38889E-005	0.240843	279.997
306.0000	3.20586	2.09384E-005	0.245645	280.452
305.5000	3.06865	6.97283E-006	0.250825	280.968
305.0000	2.96393	-1.32038E-005	0.256071	281.48
304.5000	2.74158	-1.84172E-005	0.261972	282.04
304.0000	2.63619	-1.24793E-005	0.26843	282.643
303.5000	2.36983	-6.06976E-006	0.274965	283.255
303.0000	2.18059	-7.62428E-006	0.28189	283.926
302.5000	2.09385	-8.88522E-006	0.289035	284.625
302.0000	1.82256	-1.32619E-005	0.296737	285.357
301.5000	1.59061	-1.95298E-005	0.30457	286.1
301.0000	1.71009	-1.73368E-005	0.312472	286.872
300.5000	1.68017	-1.04332E-005	0.319643	287.576
300.0000	1.57323	-1.60966E-005	0.328466	288.411
299.5000	1.43808	-3.06623E-005	0.33686	289.218
299.0000	1.39732	-2.8593E-005	0.345168	290.033
298.5000	1.34433	-3.28747E-005	0.353824	290.894
298.0000	1.23366	-2.96081E-005	0.362087	291.709
297.5000	1.07179	-4.30023E-005	0.370703	292.554
297.0000	0.983099	-4.0163E-005	0.378607	293.289
296.5000	0.911834	-3.17302E-005	0.386214	294.016
296.0000	0.832323	-3.2266E-005	0.393808	294.748
295.5000	0.868448	-3.64374E-005	0.40132	295.446
295.0000	1.10113	-3.90681E-005	0.408284	296.077
294.5000	1.07078	-2.83455E-005	0.415175	296.714
294.0000	0.90559	-2.66778E-005	0.422021	297.39
293.5000	1.04457	-2.94896E-005	0.427416	297.941
293.0000	0.967243	-2.65822E-005	0.433343	298.537
292.5000	0.735813	-3.87361E-005	0.439232	299.151
292.0000	0.587105	-2.64234E-005	0.4446	299.728
291.5000	0.281811	-4.07636E-005	0.449701	300.267
291.0000	0.110741	-2.88282E-005	0.454813	300.805
290.5000	-0.239556	-4.55787E-005	0.460247	301.368
290.0000	-0.452379	-4.06142E-005	0.465377	301.884
289.5000	-0.524545	-4.39561E-005	0.470097	302.39
289.0000	-0.662107	-4.66621E-005	0.474652	302.886
288.5000	-0.956807	-5.10706E-005	0.479688	303.441
288.0000	-1.36169	-5.82725E-005	0.484736	304.002
287.5000	-1.48669	-5.55032E-005	0.489889	304.585
287.0000	-2.06947	-6.40651E-005	0.495072	305.212
286.5000	-2.52374	-5.73419E-005	0.499917	305.827
286.0000	-2.85357	-7.44564E-005	0.505079	306.437
285.5000	-3.18186	-7.3819E-005	0.510663	307.039
285.0000	-3.55727	-7.99135E-005	0.516801	307.701
284.5000	-3.89406	-7.82201E-005	0.52237	308.309
284.0000	-4.33365	-8.37045E-005	0.528482	308.971
283.5000	-4.66202	-8.22497E-005	0.534979	309.66
283.0000	-4.86327	-8.27592E-005	0.541326	310.338
282.5000	-5.08051	-8.13421E-005	0.548441	311.092
282.0000	-5.29188	-7.2302E-005	0.555538	311.877
281.5000	-5.42754	-7.64899E-005	0.562526	312.656
281.0000	-5.68136	-9.88322E-005	0.569948	313.46
280.5000	-6.06702	-8.38363E-005	0.578001	314.353
280.0000	-6.39032	-8.09958E-005	0.586415	315.28
279.5000	-6.7413	-6.71766E-005	0.595122	316.25
279.0000	-7.17668	-9.33067E-005	0.60379	317.226
278.5000	-7.42652	-9.32082E-005	0.613411	318.296
278.0000	-7.79366	-0.000101702	0.624611	319.489
277.5000	-8.13568	-9.38287E-005	0.635108	320.612
277.0000	-8.5488	-0.000105278	0.646404	321.85
276.5000	-8.8396	-8.58305E-005	0.658206	323.159
276.0000	-9.1022	-9.1511E-005	0.669377	324.392
275.5000	-9.46736	-8.47307E-005	0.682506	325.814
275.0000	-9.62254	-0.000104638	0.696216	327.308
274.5000	-9.88915	-9.5817E-005	0.710425	328.881
274.0000	-10.3189	-8.49053E-005	0.725635	330.599
273.5000	-10.856	-0.000101903	0.740371	332.233
273.0000	-11.5583	-9.09268E-005	0.756732	334.047
272.5000	-12.0133	-5.11685E-005	0.773662	335.94
272.0000	-12.4851	-8.74229E-005	0.791285	337.933
271.5000	-12.5849	-0.000111545	0.810765	340.144
271.0000	-12.8264	-0.000101204	0.830402	342.347
270.5000	-13.2452	-7.90936E-005	0.851113	344.662
270.0000	-13.4175	-5.59894E-005	0.872373	347.087
269.5000	-13.7589	-4.0547E-005	0.89441	349.649
269.0000	-13.7585	-4.97147E-006	0.916402	352.204
268.5000	-14.1104	-1.85495E-005	0.940679	355.026
268.0000	-13.9457	-9.12685E-006	0.96616	357.992
267.5000	-13.9423	-1.02554E-005	0.992519	361.087
267.0000	-13.9586	4.87409E-006	1.0211	364.502
266.5000	-13.8424	2.69444E-005	1.05055	368.067
266.0000	-13.4109	5.62674E-005	1.07857	371.43
265.5000	-13.0452	9.27937E-005	1.10927	375.109
265.0000	-12.6717	0.000129811	1.14197	379.105
264.5000	-12.4046	0.000135087	1.17364	383.036
264.0000	-11.929	0.000139894	1.20587	387.07
263.5000	-11.5256	0.000193901	1.24063	391.422
263.0000	-11.1844	0.000175753	1.27238	395.437
262.5000	-10.3764	0.000201452	1.30751	399.963
262.0000	-9.4287	0.000184196	1.34115	404.384
261.5000	-8.76855	0.000155543	1.3754	408.887
261.0000	-8.25506	0.000180059	1.4088	413.262
260.5000	-7.61649	0.00017144	1.44412	417.952
260.0000	-7.02897	0.000222395	1.47964	422.733
259.5000	-7.1504	0.000260737	1.51571	427.649
259.0000	-6.30155	0.000292	1.55223	432.702
258.5000	-5.37153	0.000313308	1.58987	437.911
258.0000	-4.28079	0.000316157	1.62823	443.267
257.5000	-4.18061	0.000292799	1.66539	448.502
257.0000	-3.3287	0.000289394	1.70532	454.183
256.5000	-2.02247	0.000265291	1.74423	459.762
256.0000	-1.61234	0.000288012	1.78653	465.859
255.5000	-1.21529	0.00032052	1.83021	472.199
255.0000	-1.3639	0.00032069	1.87487	478.763
254.5000	-0.860571	0.000345729	1.91842	485.232
254.0000	-0.360839	0.000307768	1.96312	491.93
253.5000	-1.10013	0.000176356	2.01408	499.581
253.0000	0.428282	0.000345428	2.06108	506.75
252.5000	1.61064	0.00042334	2.13166	517.73
252.0000	2.17091	0.000428806	2.1916	527.175
251.5000	3.13721	0.000365371	2.24487	535.654
251.0000	3.19959	0.000239865	2.29943	544.395
250.5000	4.06093	0.00017884	2.35455	553.372
250.0000	4.81783	0.000313719	2.40752	562.135
249.5000	2.99008	0.000262646	2.4611	571.119
249.0000	0.608297	5.63138E-005	2.51828	580.822
248.5000	1.07758	1.91405E-006	2.57349	590.278
248.0000	2.78918	-0.000143677	2.63204	600.456
247.5000	2.79942	-0.000126805	2.68804	610.351
247.0000	1.77685	-0.000184288	2.74738	621.003
246.5000	2.23035	-0.000212721	2.8072	631.862
246.0000	-0.0732853	-0.000167187	2.86719	642.882
245.5000	-2.35152	-1.61383E-005	2.9294	654.562
245.0000	-4.03086	6.04443E-005	2.99111	666.328
244.5000	-8.13674	-0.000247915	3.05188	678.086
244.0000	-10.6	-0.000394345	3.11064	689.673
243.5000	-13.6854	-0.000398791	3.1646	700.518
243.0000	-11.9178	-0.000175588	3.21612	711.087
242.5000	-11.8883	-0.000142091	3.26987	722.327
242.0000	-14.6247	-0.000319144	3.31339	731.602
241.5000	-15.1316	-0.000321205	3.35835	741.362
241.0000	-9.34934	-0.000285425	3.39592	749.683
240.5000	-8.22773	-0.000174752	3.43325	758.226
240.0000	-7.36031	5.74565E-005	3.46369	765.365
239.5000	-10.658	0.000115697	3.49468	772.85
239.0000	-9.54926	-2.0219E-006	3.51795	778.633
238.5000	-9.15809	0.000106727	3.53886	784.051
238.0000	-7.11954	-4.01645E-006	3.55665	789.002
237.5000	-2.26545	-3.90968E-005	3.56928	792.84
237.0000	-0.237652	-4.98927E-005	3.57956	796.291
236.5000	1.9159	-1.45253E-005	3.58692	799.174
236.0000	6.62033	0.000348843	3.59166	801.461
235.5000	5.90523	0.000274907	3.59429	803.595
235.0000	4.53606	0.000212593	3.59458	804.77
234.5000	3.53041	0.000202317	3.59393	805.822
234.0000	6.12544	0.000411564	3.59217	806.72
233.5000	5.15493	0.000509617	3.58926	807.511
233.0000	6.83133	0.000467392	3.58516	808.156
232.5000	5.05052	0.000842366	3.58014	808.616
232.0000	-0.197769	0.000651833	3.57332	809.02
231.5000	-2.30429	0.000429149	3.56706	809.278
231.0000	1.99858	0.000489098	3.55973	809.527
230.5000	1.1784	0.000655736	3.55157	809.701
230.0000	2.91126	0.000898832	3.54321	809.847
229.5000	0.313102	0.000777303	3.53422	809.973
229.0000	-3.0195	0.000810178	3.52494	810.096
228.5000	-4.00799	0.00083601	3.51549	810.176
228.0000	-5.46719	0.000854357	3.50641	810.258
227.5000	-8.34563	0.000626493	3.49614	810.32
227.0000	-8.06631	0.000505483	3.48569	810.374
226.5000	-5.44493	0.000639044	3.47463	810.43
226.0000	-5.49683	0.000675854	3.46422	810.463
225.5000	-9.10407	0.000657801	3.4532	810.543
225.0000	-7.60559	0.000975604	3.44157	810.624
224.5000	-6.2364	0.00076655	3.42962	810.703
224.0000	-4.11433	0.000479923	3.41766	810.769
223.5000	-6.59971	0.000628311	3.40598	810.834
223.0000	-6.88243	0.000585926	3.39445	810.894
222.5000	-6.62184	0.000531536	3.38008	810.953
222.0000	-8.89772	6.73505E-005	3.36687	811.009
221.5000	-9.88047	0.000342581	3.3529	811.052
221.0000	-8.41245	0.00023324	3.34096	811.098
220.5000	-8.02445	5.49237E-005	3.32895	811.151
220.0000	-9.16226	-1.78291E-005	3.31618	811.195

##### Extended Information
[Comments]
Sample name	JS187+JS190_5E-5_H2O_100-0_100EQ+4H
Comment
User
Division
Company	Labo systeme complexes hors equilibre

[Detailed Information]
Creation date	1/23/2024 4:29 PM

Data array type	Linear data array * 4
Horizontal axis	Wavelength [nm]
Vertical axis(1)	CD [mdeg]
Vertical axis(2)	LD [dOD]
Vertical axis(3)	Abs
Vertical axis(4)	HT [V]
Start	700 nm
End	220 nm
Data interval	0.5 nm
Data points	961     

[Measurement Information]
Instrument name	CD Jasco
Model name	J-1500
Serial No.	A005261638

Detector	PM-539
Detector S/N	A0052PM539
  Lock-in amp.	X mode
  HT volt	Auto

Detector	EXPML-535
Detector S/N	A0001
  Lock-in amp.	X mode
  HT volt	Auto

Measurement date	1/23/2024 4:29 PM

Overload detect	1
Photometric mode	CD, LD, Abs, HT
Measure range	700 - 220 nm
Data pitch	0.5 nm
CD scale	200 mdeg/1.0 dOD
FL scale	200 mdeg/1.0 dOD
D.I.T.	1 sec
Bandwidth	1.00 nm
Start mode	Immediately
Scanning speed	500 nm/min
Baseline correction	Baseline
Shutter control	Auto


